v,t,filtered_v
0.00016,0.0,0.162231
6e-05,0.004,0.061774
0.00012,0.008,0.115309
0.00021,0.012001,0.209841
0.00018,0.016001,0.184988
0.00018,0.020001,0.175234
0.00018,0.024001,0.183888
0.0002,0.028001,0.198173
0.00023,0.032001,0.233368
0.00025,0.036002,0.25402
0.0001,0.040002,0.096912
0.00012,0.044002,0.122401
0.00018,0.048002,0.177779
0.00024,0.052002,0.237211
0.00026,0.056002,0.264206
0.00025,0.060003,0.24628
0.00023,0.064003,0.226591
0.00025,0.068003,0.248288
0.00025,0.072003,0.245658
0.00025,0.076003,0.25029
0.00023,0.080004,0.228386
0.00038,0.084004,0.378824
0.00034,0.088004,0.338803
0.00048,0.092004,0.479434
0.00103,0.096004,1.027578
0.00156,0.100004,1.563693
0.00097,0.104005,0.974514
0.00042,0.108005,0.417409
0.00038,0.112005,0.381435
0.00036,0.116005,0.362868
0.00034,0.120005,0.338713
0.00033,0.124006,0.332947
0.00037,0.128006,0.3711
0.00031,0.132006,0.30947
0.00033,0.136006,0.327943
0.0004,0.140006,0.395001
0.00033,0.144006,0.326146
0.00041,0.148007,0.407522
0.00024,0.152007,0.236274
0.00034,0.156007,0.344946
0.00043,0.160007,0.43186
0.0003,0.164007,0.29819
0.00034,0.168007,0.341827
0.00041,0.172008,0.41088
0.00038,0.176008,0.384039
0.00046,0.180008,0.463525
0.00037,0.184008,0.368162
0.0003,0.188008,0.29993
0.00027,0.192009,0.274733
0.00036,0.196009,0.364438
0.00038,0.200009,0.380459
0.00048,0.204009,0.475948
0.00041,0.208009,0.405223
0.00037,0.212009,0.371625
0.00039,0.21601,0.385349
0.00033,0.22001,0.332307
0.00027,0.22401,0.269903
0.00035,0.22801,0.345492
0.00047,0.23201,0.467452
0.00034,0.23601,0.344782
0.00038,0.240011,0.377757
0.00041,0.244011,0.413808
0.00033,0.248011,0.334113
0.00033,0.252011,0.328184
0.00038,0.256011,0.379585
0.00029,0.260012,0.294533
0.00044,0.264012,0.442727
0.00029,0.268012,0.290835
0.00035,0.272012,0.348349
0.00035,0.276012,0.352174
0.00039,0.280012,0.392664
0.00035,0.284013,0.345089
0.00039,0.288013,0.394584
0.00032,0.292013,0.321398
0.00041,0.296013,0.405538
0.00035,0.300013,0.35331
0.00034,0.304014,0.343078
0.00027,0.308014,0.26714
0.00042,0.312014,0.421566
0.00029,0.316014,0.292065
0.00027,0.320014,0.269084
0.00033,0.324014,0.325914
0.00026,0.328015,0.261662
0.0002,0.332015,0.200966
0.0003,0.336015,0.304315
0.0003,0.340015,0.296628
0.00028,0.344015,0.278194
0.00026,0.348015,0.258021
0.00023,0.352016,0.228382
0.00033,0.356016,0.332537
0.00023,0.360016,0.227039
0.00024,0.364016,0.242432
0.00019,0.368016,0.19001
0.00025,0.372017,0.253916
0.00013,0.376017,0.129021
0.00021,0.380017,0.213848
0.00018,0.384017,0.180572
0.00012,0.388017,0.121836
0.0001,0.392017,0.097188
9e-05,0.396018,0.086686
0.00017,0.400018,0.167732
0.00013,0.404018,0.132005
0.00011,0.408018,0.113237
0.00011,0.412018,0.106733
0.0001,0.416018,0.104413
8e-05,0.420019,0.080722
0.0001,0.424019,0.096803
8e-05,0.428019,0.075396
2e-05,0.432019,0.023432
7e-05,0.436019,0.074996
0.00012,0.44002,0.116801
3e-05,0.44402,0.03136
6e-05,0.44802,0.058389
-9e-05,0.45202,-0.089167
-1e-05,0.45602,-0.009208
-6e-05,0.46002,-0.063511
-6e-05,0.464021,-0.064273
-2e-05,0.468021,-0.018421
-2e-05,0.472021,-0.02053
-0.00011,0.476021,-0.110447
-0.0,0.480021,-0.000166
-8e-05,0.484022,-0.083159
-0.00013,0.488022,-0.131091
-0.0001,0.492022,-0.104834
-0.00017,0.496022,-0.173108
-0.00016,0.500022,-0.159317
-0.00016,0.504022,-0.15733
-0.00012,0.508023,-0.123968
-0.00024,0.512023,-0.240896
-0.00018,0.516023,-0.179524
-0.00011,0.520023,-0.113421
-0.00018,0.524023,-0.178589
-0.00015,0.528023,-0.152167
-0.00021,0.532024,-0.213951
-0.0002,0.536024,-0.196253
-0.00018,0.540024,-0.179773
-0.00021,0.544024,-0.214256
-0.00021,0.548024,-0.206633
-0.00023,0.552025,-0.226762
-0.00026,0.556025,-0.261064
-0.00025,0.560025,-0.252686
-0.0003,0.564025,-0.302732
-0.00024,0.568025,-0.243712
-0.00024,0.572025,-0.243282
-0.00023,0.576026,-0.226991
-0.0003,0.580026,-0.295389
-0.00022,0.584026,-0.21981
-0.00031,0.588026,-0.30562
-0.00036,0.592026,-0.355866
-0.00023,0.596026,-0.233276
-0.00036,0.600027,-0.360834
-0.00033,0.604027,-0.334739
-0.00026,0.608027,-0.259373
-0.00026,0.612027,-0.258882
-0.00036,0.616027,-0.364605
-0.00035,0.620028,-0.354293
-0.00038,0.624028,-0.383463
-0.00029,0.628028,-0.293574
-0.0003,0.632028,-0.295629
-0.00027,0.636028,-0.273597
-0.00029,0.640028,-0.2943
-0.0003,0.644029,-0.303526
-0.00038,0.648029,-0.382099
-0.00033,0.652029,-0.332775
-0.00041,0.656029,-0.41016
-0.00041,0.660029,-0.411215
-0.00034,0.66403,-0.343692
-0.00037,0.66803,-0.371685
-0.00027,0.67203,-0.273563
-0.00036,0.67603,-0.359888
-0.00041,0.68003,-0.413782
-0.00036,0.68403,-0.357369
-0.00033,0.688031,-0.334954
-0.00038,0.692031,-0.378996
-0.00042,0.696031,-0.416291
-0.00042,0.700031,-0.418506
-0.00041,0.704031,-0.406306
-0.00038,0.708031,-0.380698
-0.00048,0.712032,-0.479889
-0.00042,0.716032,-0.418455
-0.00029,0.720032,-0.286965
-0.0004,0.724032,-0.395659
-0.00043,0.728032,-0.42767
-0.00039,0.732033,-0.390301
-0.00041,0.736033,-0.407255
-0.00039,0.740033,-0.389832
-0.00028,0.744033,-0.277898
-0.00042,0.748033,-0.423012
-0.00039,0.752033,-0.394242
-0.00039,0.756034,-0.386372
-0.00038,0.760034,-0.379096
-0.0004,0.764034,-0.395143
-0.00044,0.768034,-0.43823
-0.00033,0.772034,-0.332011
-0.00031,0.776034,-0.311315
-0.00025,0.780035,-0.249638
-0.00029,0.784035,-0.29333
-0.00033,0.788035,-0.332451
-0.00033,0.792035,-0.327852
-0.00036,0.796035,-0.358104
-0.0003,0.800036,-0.301055
-0.00026,0.804036,-0.260703
-0.00029,0.808036,-0.288649
-0.00043,0.812036,-0.428835
-0.0003,0.816036,-0.299312
-0.00028,0.820036,-0.276987
-0.00027,0.824037,-0.270879
-0.00028,0.828037,-0.277421
-0.00022,0.832037,-0.224183
-0.00021,0.836037,-0.21352
-0.00027,0.840037,-0.268984
-0.00025,0.844038,-0.245415
-0.00027,0.848038,-0.267029
-0.00028,0.852038,-0.279148
-0.00018,0.856038,-0.179588
-0.00025,0.860038,-0.245549
-0.00017,0.864038,-0.172222
-0.00018,0.868039,-0.183175
-0.00021,0.872039,-0.206158
-0.00019,0.876039,-0.192104
-0.00017,0.880039,-0.169744
-0.00017,0.884039,-0.172132
-0.00018,0.888039,-0.178225
-0.00016,0.89204,-0.157584
-8e-05,0.89604,-0.082917
-0.00012,0.90004,-0.115095
-9e-05,0.90404,-0.091898
-6e-05,0.90804,-0.063852
-0.0001,0.912041,-0.103685
-0.0001,0.916041,-0.10183
-4e-05,0.920041,-0.039405
-3e-05,0.924041,-0.033968
-0.0,0.928041,-0.002458
-1e-05,0.932041,-0.014916
-0.0001,0.936042,-0.101784
-5e-05,0.940042,-0.053048
1e-05,0.944042,0.005753
4e-05,0.948042,0.03655
-0.00011,0.952042,-0.106871
2e-05,0.956042,0.023816
8e-05,0.960043,0.075541
-4e-05,0.964043,-0.042417
3e-05,0.968043,0.029048
0.00014,0.972043,0.137172
8e-05,0.976043,0.076073
5e-05,0.980044,0.052484
6e-05,0.984044,0.064332
0.00012,0.988044,0.124024
7e-05,0.992044,0.072837
0.00019,0.996044,0.188908
-4e-05,1.000044,-0.042737
0.00014,1.004045,0.140026
0.00021,1.008045,0.214061
0.00015,1.012045,0.150407
0.00016,1.016045,0.158537
0.00013,1.020045,0.125088
0.00011,1.024046,0.113791
0.00016,1.028046,0.160403
0.00012,1.032046,0.123923
0.00024,1.036046,0.235462
0.00013,1.040046,0.125914
0.00019,1.044046,0.193332
0.00015,1.048047,0.145118
0.00022,1.052047,0.223337
0.00023,1.056047,0.225566
0.00027,1.060047,0.27231
0.00032,1.064047,0.319699
0.0003,1.068047,0.29938
0.00033,1.072048,0.325653
0.00023,1.076048,0.234439
0.00023,1.080048,0.234435
0.0003,1.084048,0.303417
0.00027,1.088048,0.265661
0.00034,1.092049,0.341786
0.00099,1.096049,0.987174
0.00155,1.100049,1.553449
0.00095,1.104049,0.947764
0.00042,1.108049,0.420989
0.00029,1.112049,0.292391
0.00031,1.11605,0.310977
0.00039,1.12005,0.386603
0.0003,1.12405,0.303101
0.00031,1.12805,0.308111
0.00031,1.13205,0.305196
0.00036,1.13605,0.364527
0.0003,1.140051,0.295907
0.00027,1.144051,0.274019
0.0004,1.148051,0.397491
0.00036,1.152051,0.358983
0.00035,1.156051,0.345123
0.00042,1.160052,0.415443
0.00033,1.164052,0.331499
0.00052,1.168052,0.519209
0.00044,1.172052,0.436824
0.00037,1.176052,0.368307
0.00036,1.180052,0.362778
0.00042,1.184053,0.41768
0.00041,1.188053,0.4093
0.00035,1.192053,0.348681
0.0004,1.196053,0.403219
0.00039,1.200053,0.390669
0.00035,1.204054,0.351356
0.00032,1.208054,0.316606
0.00044,1.212054,0.444147
0.00036,1.216054,0.355253
0.00045,1.220054,0.446854
0.00026,1.224054,0.259274
0.00028,1.228055,0.280806
0.00037,1.232055,0.366912
0.00032,1.236055,0.322985
0.00042,1.240055,0.420066
0.00034,1.244055,0.341775
0.00026,1.248055,0.259757
0.00042,1.252056,0.416201
0.00034,1.256056,0.336653
0.00038,1.260056,0.383977
0.00033,1.264056,0.331484
0.00036,1.268056,0.360698
0.00034,1.272057,0.343402
0.00041,1.276057,0.408636
0.00028,1.280057,0.280404
0.00037,1.284057,0.370575
0.00041,1.288057,0.410851
0.00035,1.292057,0.349908
0.00031,1.296058,0.314238
0.00037,1.300058,0.371605
0.0003,1.304058,0.297015
0.00029,1.308058,0.293739
0.00038,1.312058,0.38048
0.00037,1.316058,0.373128
0.0003,1.320059,0.295354
0.00024,1.324059,0.240768
0.00022,1.328059,0.217122
0.00033,1.332059,0.328228
0.00025,1.336059,0.249856
0.00019,1.34006,0.190218
0.00024,1.34406,0.243993
0.00025,1.34806,0.246909
0.00026,1.35206,0.257001
0.00023,1.35606,0.229777
0.00018,1.36006,0.175866
0.00018,1.364061,0.176378
0.00025,1.368061,0.246115
9e-05,1.372061,0.092504
0.00014,1.376061,0.142638
0.00015,1.380061,0.152968
0.00019,1.384062,0.190743
0.00022,1.388062,0.219346
0.00017,1.392062,0.172526
0.00018,1.396062,0.180876
0.00013,1.400062,0.130612
0.00012,1.404062,0.115127
0.00011,1.408063,0.107278
0.0001,1.412063,0.096587
7e-05,1.416063,0.065992
0.00012,1.420063,0.119253
0.0001,1.424063,0.100581
0.0001,1.428063,0.100003
-2e-05,1.432064,-0.015536
-1e-05,1.436064,-0.01226
0.0,1.440064,0.001797
8e-05,1.444064,0.083509
5e-05,1.448064,0.050095
-5e-05,1.452065,-0.046433
-5e-05,1.456065,-0.046124
-5e-05,1.460065,-0.045982
-6e-05,1.464065,-0.0562
-6e-05,1.468065,-0.062924
-6e-05,1.472065,-0.062664
-0.00013,1.476066,-0.126365
-4e-05,1.480066,-0.037911
-6e-05,1.484066,-0.056788
-5e-05,1.488066,-0.051571
-0.00014,1.492066,-0.140634
-8e-05,1.496066,-0.081268
-0.00012,1.500067,-0.121731
-6e-05,1.504067,-0.055426
-0.00017,1.508067,-0.168069
-0.00014,1.512067,-0.14462
-0.00016,1.516067,-0.157681
-6e-05,1.520068,-0.05518
-0.00013,1.524068,-0.131583
-0.00032,1.528068,-0.316253
-0.00011,1.532068,-0.114332
-0.00022,1.536068,-0.215095
-0.00015,1.540068,-0.153714
-0.00019,1.544069,-0.193935
-0.00018,1.548069,-0.177782
-0.00023,1.552069,-0.227602
-0.00023,1.556069,-0.22871
-0.00033,1.560069,-0.330751
-0.00025,1.56407,-0.245552
-0.00031,1.56807,-0.306522
-0.00025,1.57207,-0.254708
-0.00038,1.57607,-0.381095
-0.00019,1.58007,-0.185207
-0.00031,1.58407,-0.308307
-0.00035,1.588071,-0.348338
-0.00029,1.592071,-0.287759
-0.00034,1.596071,-0.340439
-0.00038,1.600071,-0.38164
-0.00034,1.604071,-0.343394
-0.00031,1.608071,-0.306107
-0.00026,1.612072,-0.258002
-0.00034,1.616072,-0.344254
-0.00035,1.620072,-0.349396
-0.00033,1.624072,-0.325127
-0.00031,1.628072,-0.311317
-0.00045,1.632073,-0.445246
-0.00037,1.636073,-0.374812
-0.00042,1.640073,-0.416543
-0.00038,1.644073,-0.375801
-0.00039,1.648073,-0.394865
-0.00033,1.652073,-0.334424
-0.00034,1.656074,-0.340662
-0.00046,1.660074,-0.460479
-0.00035,1.664074,-0.350898
-0.00039,1.668074,-0.393535
-0.00027,1.672074,-0.267709
-0.00049,1.676074,-0.486262
-0.00041,1.680075,-0.410035
-0.00043,1.684075,-0.431377
-0.00041,1.688075,-0.41325
-0.00035,1.692075,-0.35392
-0.00032,1.696075,-0.320791
-0.00048,1.700076,-0.476544
-0.00041,1.704076,-0.412277
-0.00035,1.708076,-0.348686
-0.00039,1.712076,-0.391894
-0.00035,1.716076,-0.351507
-0.00037,1.720076,-0.370418
-0.00048,1.724077,-0.483424
-0.00038,1.728077,-0.383378
-0.00038,1.732077,-0.37889
-0.00036,1.736077,-0.360116
-0.00033,1.740077,-0.330868
-0.00034,1.744078,-0.336005
-0.00031,1.748078,-0.310823
-0.00032,1.752078,-0.318074
-0.00037,1.756078,-0.370299
-0.00035,1.760078,-0.348063
-0.00037,1.764078,-0.370999
-0.00035,1.768079,-0.352775
-0.00034,1.772079,-0.340141
-0.00039,1.776079,-0.394944
-0.00036,1.780079,-0.35953
-0.00032,1.784079,-0.319677
-0.00038,1.788079,-0.377929
-0.00033,1.79208,-0.332609
-0.00031,1.79608,-0.312566
-0.00033,1.80008,-0.325618
-0.00037,1.80408,-0.366737
-0.00028,1.80808,-0.281601
-0.00035,1.812081,-0.346227
-0.00025,1.816081,-0.246044
-0.00027,1.820081,-0.270267
-0.00022,1.824081,-0.224918
-0.00028,1.828081,-0.281743
-0.00028,1.832081,-0.277342
-0.00027,1.836082,-0.267564
-0.00026,1.840082,-0.255909
-0.00018,1.844082,-0.17935
-0.00022,1.848082,-0.224855
-0.00022,1.852082,-0.216437
-0.00023,1.856082,-0.231872
-0.00024,1.860083,-0.235228
-0.00027,1.864083,-0.267871
-0.00016,1.868083,-0.15861
-0.00023,1.872083,-0.233943
-0.00013,1.876083,-0.131426
-0.00016,1.880084,-0.156229
-8e-05,1.884084,-0.084586
-0.00016,1.888084,-0.157806
-9e-05,1.892084,-0.086167
-0.00011,1.896084,-0.114014
-3e-05,1.900084,-0.029232
-0.00021,1.904085,-0.213099
-7e-05,1.908085,-0.074907
1e-05,1.912085,0.012712
-4e-05,1.916085,-0.03522
-0.00011,1.920085,-0.111134
-7e-05,1.924086,-0.069755
-1e-05,1.928086,-0.006072
-9e-05,1.932086,-0.090307
-0.00012,1.936086,-0.117006
-3e-05,1.940086,-0.030711
0.0,1.944086,0.004116
-3e-05,1.948087,-0.025375
-0.00011,1.952087,-0.108014
-3e-05,1.956087,-0.033553
7e-05,1.960087,0.066191
-1e-05,1.964087,-0.006178
7e-05,1.968087,0.069778
3e-05,1.972088,0.027562
5e-05,1.976088,0.052576
2e-05,1.980088,0.023592
1e-05,1.984088,0.011659
7e-05,1.988088,0.070192
7e-05,1.992089,0.073162
0.00013,1.996089,0.125074
0.00013,2.000089,0.128666
0.00016,2.004089,0.158224
0.0002,2.008089,0.202339
0.00017,2.012089,0.170502
1e-05,2.01609,0.008721
0.00015,2.02009,0.154927
0.00012,2.02409,0.119106
0.00017,2.02809,0.169216
9e-05,2.03209,0.090186
0.00026,2.03609,0.258385
0.0002,2.040091,0.203726
0.00013,2.044091,0.134814
0.00031,2.048091,0.312673
0.00023,2.052091,0.228486
0.00015,2.056091,0.154885
0.0003,2.060092,0.303612
0.00037,2.064092,0.374221
0.00023,2.068092,0.226964
0.00027,2.072092,0.266922
0.00031,2.076092,0.312243
0.00028,2.080092,0.276513
0.00024,2.084093,0.244464
0.00032,2.088093,0.320293
0.00045,2.092093,0.448435
0.00087,2.096093,0.87007
0.00157,2.100093,1.573688
0.00097,2.104094,0.965442
0.00039,2.108094,0.387877
0.00037,2.112094,0.372743
0.00033,2.116094,0.329806
0.00039,2.120094,0.38917
0.00037,2.124094,0.365258
0.0003,2.128095,0.2983
0.00037,2.132095,0.374314
0.00043,2.136095,0.426807
0.00034,2.140095,0.344216
0.00037,2.144095,0.365391
0.00031,2.148095,0.313436
0.00036,2.152096,0.356767
0.00046,2.156096,0.455396
0.00037,2.160096,0.369667
0.00038,2.164096,0.378006
0.00036,2.168096,0.358417
0.00043,2.172097,0.427895
0.00035,2.176097,0.350182
0.00047,2.180097,0.472662
0.00036,2.184097,0.357571
0.00043,2.188097,0.431644
0.00038,2.192097,0.380816
0.0004,2.196098,0.400867
0.00034,2.200098,0.340109
0.0003,2.204098,0.299401
0.00034,2.208098,0.342565
0.00042,2.212098,0.421821
0.00038,2.216098,0.376456
0.00046,2.220099,0.46081
0.00043,2.224099,0.427526
0.00037,2.228099,0.369667
0.00037,2.232099,0.366263
0.00038,2.236099,0.377926
0.00045,2.2401,0.452978
0.00036,2.2441,0.36384
0.00038,2.2481,0.376256
0.00051,2.2521,0.514247
0.00045,2.2561,0.449879
0.00035,2.2601,0.352895
0.00034,2.264101,0.344666
0.00035,2.268101,0.349976
0.00033,2.272101,0.331741
0.00034,2.276101,0.336816
0.00033,2.280101,0.333917
0.0003,2.284102,0.302313
0.00029,2.288102,0.292144
0.00029,2.292102,0.292126
0.0004,2.296102,0.400996
0.00033,2.300102,0.329863
0.00039,2.304102,0.391619
0.00034,2.308103,0.342149
0.00038,2.312103,0.383623
0.00031,2.316103,0.305582
0.00029,2.320103,0.288244
0.00028,2.324103,0.282377
0.00017,2.328103,0.173177
0.00021,2.332104,0.207784
0.00027,2.336104,0.270696
0.00017,2.340104,0.165502
0.00029,2.344104,0.289759
0.00019,2.348104,0.191218
0.00021,2.352105,0.210745
0.00023,2.356105,0.234843
0.00012,2.360105,0.11654
0.00027,2.364105,0.267901
0.00017,2.368105,0.17357
0.00012,2.372105,0.11732
0.00017,2.376106,0.17015
0.00021,2.380106,0.20534
0.00013,2.384106,0.127048
0.00013,2.388106,0.126852
0.0001,2.392106,0.098761
0.00016,2.396106,0.162344
0.0002,2.400107,0.201933
0.00015,2.404107,0.150773
0.00021,2.408107,0.213633
0.00018,2.412107,0.181518
8e-05,2.416107,0.078261
0.0001,2.420108,0.104136
9e-05,2.424108,0.092942
0.00012,2.428108,0.124935
-3e-05,2.432108,-0.025224
9e-05,2.436108,0.091597
7e-05,2.440108,0.065063
7e-05,2.444109,0.069653
-8e-05,2.448109,-0.078901
9e-05,2.452109,0.085696
1e-05,2.456109,0.011044
-1e-05,2.460109,-0.008507
-1e-05,2.46411,-0.010453
1e-05,2.46811,0.011618
1e-05,2.47211,0.010119
-7e-05,2.47611,-0.065178
-9e-05,2.48011,-0.093681
-0.0001,2.48411,-0.104408
-0.00011,2.488111,-0.113526
-0.00014,2.492111,-0.13669
-5e-05,2.496111,-0.047901
-4e-05,2.500111,-0.039179
-9e-05,2.504111,-0.093931
-0.00016,2.508111,-0.157751
-0.00017,2.512112,-0.173272
-0.00012,2.516112,-0.122633
-0.0002,2.520112,-0.199445
-0.00019,2.524112,-0.191672
-0.00011,2.528112,-0.113333
-0.00023,2.532113,-0.231228
-0.00024,2.536113,-0.242567
-0.0002,2.540113,-0.200648
-0.00016,2.544113,-0.163966
-0.00018,2.548113,-0.184905
-0.00029,2.552113,-0.292012
-0.00026,2.556114,-0.262714
-0.00022,2.560114,-0.216009
-0.00028,2.564114,-0.282669
-0.00033,2.568114,-0.327424
-0.00032,2.572114,-0.324932
-0.00035,2.576114,-0.347774
-0.00021,2.580115,-0.20872
-0.00025,2.584115,-0.254507
-0.00025,2.588115,-0.254034
-0.00028,2.592115,-0.28296
-0.00037,2.596115,-0.366832
-0.00026,2.600116,-0.262064
-0.00035,2.604116,-0.345996
-0.0003,2.608116,-0.302216
-0.00037,2.612116,-0.366433
-0.00043,2.616116,-0.425189
-0.0004,2.620116,-0.404538
-0.00035,2.624117,-0.352816
-0.00041,2.628117,-0.411893
-0.0004,2.632117,-0.404825
-0.00037,2.636117,-0.368745
-0.00036,2.640117,-0.364506
-0.00025,2.644118,-0.249121
-0.00045,2.648118,-0.449726
-0.00034,2.652118,-0.343233
-0.00041,2.656118,-0.410515
-0.00034,2.660118,-0.343898
-0.00042,2.664118,-0.416589
-0.00042,2.668119,-0.4155
-0.00038,2.672119,-0.378525
-0.00045,2.676119,-0.445283
-0.00027,2.680119,-0.268224
-0.00043,2.684119,-0.427301
-0.00041,2.688119,-0.413979
-0.00038,2.69212,-0.376078
-0.00038,2.69612,-0.377342
-0.00034,2.70012,-0.340426
-0.00039,2.70412,-0.390454
-0.00041,2.70812,-0.412175
-0.00032,2.712121,-0.322657
-0.00032,2.716121,-0.324569
-0.0004,2.720121,-0.40483
-0.0004,2.724121,-0.398241
-0.00044,2.728121,-0.444033
-0.00037,2.732121,-0.372805
-0.00034,2.736122,-0.342764
-0.00044,2.740122,-0.442007
-0.00044,2.744122,-0.436604
-0.00037,2.748122,-0.365827
-0.00038,2.752122,-0.383843
-0.00029,2.756122,-0.291973
-0.00035,2.760123,-0.347966
-0.00029,2.764123,-0.2896
-0.00035,2.768123,-0.352328
-0.0003,2.772123,-0.296815
-0.00038,2.776123,-0.381263
-0.00037,2.780124,-0.374796
-0.00037,2.784124,-0.367491
-0.00047,2.788124,-0.468014
-0.00034,2.792124,-0.3352
-0.00034,2.796124,-0.335614
-0.00041,2.800124,-0.40722
-0.00035,2.804125,-0.352052
-0.00032,2.808125,-0.324826
-0.00028,2.812125,-0.283875
-0.00036,2.816125,-0.357169
-0.0003,2.820125,-0.297654
-0.00017,2.824126,-0.172392
-0.00027,2.828126,-0.267486
-0.00023,2.832126,-0.231562
-0.00029,2.836126,-0.288473
-0.00023,2.840126,-0.230591
-0.00028,2.844126,-0.276819
-0.00017,2.848127,-0.174269
-0.00031,2.852127,-0.311618
-0.00018,2.856127,-0.178328
-0.00023,2.860127,-0.230593
-0.00027,2.864127,-0.267965
-0.00024,2.868127,-0.238219
-0.00017,2.872128,-0.172776
-0.00027,2.876128,-0.26549
-0.00024,2.880128,-0.244625
-0.00019,2.884128,-0.191558
-9e-05,2.888128,-0.092256
-7e-05,2.892129,-0.070267
-0.0002,2.896129,-0.202668
-0.00011,2.900129,-0.107206
-7e-05,2.904129,-0.068387
-0.00012,2.908129,-0.116801
-0.00021,2.912129,-0.212633
-0.00017,2.91613,-0.167574
-4e-05,2.92013,-0.039787
-6e-05,2.92413,-0.062094
-8e-05,2.92813,-0.07547
-2e-05,2.93213,-0.022764
-0.00011,2.93613,-0.10864
-8e-05,2.940131,-0.078064
-5e-05,2.944131,-0.051442
-8e-05,2.948131,-0.078701
-4e-05,2.952131,-0.040649
1e-05,2.956131,0.00638
0.00018,2.960132,0.177791
3e-05,2.964132,0.034419
5e-05,2.968132,0.054618
0.00011,2.972132,0.109347
9e-05,2.976132,0.087338
0.00014,2.980132,0.141556
0.00011,2.984133,0.110832
0.00014,2.988133,0.137935
0.00011,2.992133,0.107796
4e-05,2.996133,0.039157
8e-05,3.000133,0.084424
4e-05,3.004134,0.044578
0.00019,3.008134,0.194825
0.0001,3.012134,0.096247
0.00016,3.016134,0.158538
0.0001,3.020134,0.097097
0.00022,3.024134,0.223157
0.00019,3.028135,0.19209
0.00028,3.032135,0.275439
0.0002,3.036135,0.199041
0.0002,3.040135,0.200618
0.0002,3.044135,0.202585
0.00022,3.048135,0.22128
0.00019,3.052136,0.185947
0.00032,3.056136,0.321935
0.00022,3.060136,0.217777
0.00027,3.064136,0.268072
0.00022,3.068136,0.21502
0.00035,3.072137,0.352373
0.00028,3.076137,0.284379
0.00029,3.080137,0.294758
0.00023,3.084137,0.229474
0.00026,3.088137,0.257011
0.00039,3.092137,0.388196
0.00091,3.096138,0.912942
0.00148,3.100138,1.482846
0.00087,3.104138,0.870237
0.00045,3.108138,0.449868
0.00037,3.112138,0.369083
0.00027,3.116138,0.273511
0.00038,3.120139,0.377249
0.00039,3.124139,0.391908
0.00025,3.128139,0.246985
0.00039,3.132139,0.394165
0.00032,3.136139,0.315579
0.00035,3.14014,0.34626
0.00034,3.14414,0.335405
0.00033,3.14814,0.327909
0.00045,3.15214,0.447807
0.00041,3.15614,0.405568
0.00037,3.16014,0.365684
0.00033,3.164141,0.326871
0.00033,3.168141,0.329389
0.00039,3.172141,0.385765
0.00043,3.176141,0.432436
0.00041,3.180141,0.406821
0.00038,3.184142,0.384493
0.0003,3.188142,0.301551
0.00035,3.192142,0.353319
0.00036,3.196142,0.364927
0.00032,3.200142,0.323699
0.0004,3.204142,0.404829
0.00039,3.208143,0.386628
0.00042,3.212143,0.419553
0.00041,3.216143,0.405042
0.00035,3.220143,0.346403
0.00044,3.224143,0.441575
0.00036,3.228143,0.362036
0.00037,3.232144,0.365067
0.00038,3.236144,0.379425
0.00035,3.240144,0.354844
0.00037,3.244144,0.369649
0.00038,3.248144,0.378274
0.0004,3.252145,0.398226
0.00035,3.256145,0.35179
0.00034,3.260145,0.343937
0.00032,3.264145,0.319887
0.00033,3.268145,0.333186
0.00039,3.272145,0.39114
0.00033,3.276146,0.331609
0.00037,3.280146,0.371839
0.00042,3.284146,0.423631
0.00032,3.288146,0.315142
0.00033,3.292146,0.327901
0.00036,3.296146,0.358243
0.0003,3.300147,0.298553
0.00029,3.304147,0.294353
0.00035,3.308147,0.353699
0.00034,3.312147,0.344067
0.00039,3.316147,0.389033
0.00035,3.320148,0.354919
0.00028,3.324148,0.284856
0.00023,3.328148,0.225318
0.00019,3.332148,0.189367
0.00031,3.336148,0.307744
0.00022,3.340148,0.217593
0.00031,3.344149,0.310534
0.00029,3.348149,0.293645
0.00023,3.352149,0.226406
0.00029,3.356149,0.286538
0.00013,3.360149,0.126503
0.0002,3.36415,0.203914
0.00018,3.36815,0.176024
0.00026,3.37215,0.25734
0.00014,3.37615,0.138983
0.00017,3.38015,0.168422
0.00022,3.38415,0.218568
0.00014,3.388151,0.137133
0.00016,3.392151,0.161372
0.00014,3.396151,0.136528
0.0001,3.400151,0.104877
0.00011,3.404151,0.113606
6e-05,3.408151,0.057365
0.00015,3.412152,0.150422
-1e-05,3.416152,-0.014683
0.00011,3.420152,0.111636
0.00017,3.424152,0.174984
8e-05,3.428152,0.078006
-4e-05,3.432153,-0.039877
0.00014,3.436153,0.141511
2e-05,3.440153,0.021232
4e-05,3.444153,0.037909
6e-05,3.448153,0.055849
-4e-05,3.452153,-0.044546
3e-05,3.456154,0.026492
-3e-05,3.460154,-0.034969
4e-05,3.464154,0.044295
-0.00015,3.468154,-0.145536
-3e-05,3.472154,-0.029574
-3e-05,3.476154,-0.027843
-1e-05,3.480155,-0.012954
-0.00016,3.484155,-0.158225
-9e-05,3.488155,-0.085451
-0.00016,3.492155,-0.157706
-9e-05,3.496155,-0.088585
-0.00013,3.500156,-0.130987
-0.00012,3.504156,-0.11894
-8e-05,3.508156,-0.079919
-0.0001,3.512156,-0.104722
-0.00017,3.516156,-0.166315
-0.0001,3.520156,-0.098393
-0.00017,3.524157,-0.171064
-0.00017,3.528157,-0.170053
-0.00016,3.532157,-0.158854
-8e-05,3.536157,-0.075618
-0.00018,3.540157,-0.184661
-0.00022,3.544158,-0.216435
-0.00021,3.548158,-0.20739
-0.00022,3.552158,-0.218536
-0.0002,3.556158,-0.200612
-0.00026,3.560158,-0.255729
-0.00022,3.564158,-0.215453
-0.00021,3.568159,-0.207551
-0.00026,3.572159,-0.261124
-0.00022,3.576159,-0.224583
-0.00027,3.580159,-0.274581
-0.00028,3.584159,-0.280952
-0.0003,3.588159,-0.301913
-0.00027,3.59216,-0.268384
-0.00037,3.59616,-0.369196
-0.00032,3.60016,-0.318968
-0.0003,3.60416,-0.302061
-0.00035,3.60816,-0.349987
-0.00031,3.612161,-0.308259
-0.00031,3.616161,-0.307227
-0.00035,3.620161,-0.346557
-0.00031,3.624161,-0.311761
-0.00039,3.628161,-0.391788
-0.00035,3.632161,-0.350387
-0.00034,3.636162,-0.338593
-0.00028,3.640162,-0.276207
-0.00036,3.644162,-0.364383
-0.00045,3.648162,-0.44617
-0.00037,3.652162,-0.365806
-0.00028,3.656162,-0.275295
-0.0004,3.660163,-0.401787
-0.00036,3.664163,-0.363523
-0.00038,3.668163,-0.384937
-0.00032,3.672163,-0.32043
-0.00032,3.676163,-0.318178
-0.00038,3.680164,-0.37552
-0.0004,3.684164,-0.398814
-0.0004,3.688164,-0.400449
-0.00043,3.692164,-0.429365
-0.00033,3.696164,-0.327948
-0.00042,3.700164,-0.416564
-0.00043,3.704165,-0.432541
-0.00045,3.708165,-0.446197
-0.00043,3.712165,-0.426212
-0.00039,3.716165,-0.38859
-0.00039,3.720165,-0.385199
-0.00043,3.724166,-0.428069
-0.00033,3.728166,-0.3289
-0.00031,3.732166,-0.314395
-0.00031,3.736166,-0.309185
-0.00038,3.740166,-0.376763
-0.00036,3.744166,-0.356216
-0.00028,3.748167,-0.278866
-0.00037,3.752167,-0.371991
-0.0003,3.756167,-0.295767
-0.00043,3.760167,-0.431331
-0.00037,3.764167,-0.37128
-0.00039,3.768167,-0.390226
-0.00037,3.772168,-0.369868
-0.00031,3.776168,-0.307204
-0.00043,3.780168,-0.431274
-0.00041,3.784168,-0.406258
-0.00036,3.788168,-0.359102
-0.00034,3.792169,-0.338288
-0.00042,3.796169,-0.421709
-0.00034,3.800169,-0.336935
-0.00034,3.804169,-0.337052
-0.00032,3.808169,-0.324238
-0.00026,3.812169,-0.258469
-0.00025,3.81617,-0.247464
-0.00026,3.82017,-0.257
-0.00032,3.82417,-0.316348
-0.00024,3.82817,-0.237488
-0.00026,3.83217,-0.261351
-0.00019,3.83617,-0.188088
-0.00023,3.840171,-0.23313
-0.00031,3.844171,-0.311719
-0.00023,3.848171,-0.234334
-0.0002,3.852171,-0.201183
-0.00024,3.856171,-0.24498
-0.00024,3.860172,-0.237799
-0.00022,3.864172,-0.219959
-0.00021,3.868172,-0.212703
-0.00019,3.872172,-0.194791
-0.00023,3.876172,-0.227792
-0.00013,3.880172,-0.125441
-5e-05,3.884173,-0.045279
-0.00022,3.888173,-0.21642
-0.00011,3.892173,-0.112253
-9e-05,3.896173,-0.091379
-0.00013,3.900173,-0.12786
-0.00016,3.904174,-0.162975
-7e-05,3.908174,-0.071205
-0.00021,3.912174,-0.211439
-0.0001,3.916174,-0.098482
-0.00012,3.920174,-0.115905
3e-05,3.924174,0.031939
-4e-05,3.928175,-0.044966
-3e-05,3.932175,-0.027168
-4e-05,3.936175,-0.03937
6e-05,3.940175,0.064698
-6e-05,3.944175,-0.060279
4e-05,3.948175,0.04314
-0.0,3.952176,-0.001899
3e-05,3.956176,0.028557
7e-05,3.960176,0.073889
-1e-05,3.964176,-0.009463
9e-05,3.968176,0.091921
3e-05,3.972177,0.029167
7e-05,3.976177,0.071907
4e-05,3.980177,0.036785
-2e-05,3.984177,-0.015144
0.0,3.988177,0.003884
0.00015,3.992177,0.153044
0.00012,3.996178,0.118926
0.00014,4.000178,0.136589
0.00025,4.004178,0.252164
0.0002,4.008178,0.201857
0.00015,4.012178,0.152186
0.00023,4.016178,0.227142
0.0001,4.020179,0.102216
0.00028,4.024179,0.275538
0.00021,4.028179,0.211951
0.00027,4.032179,0.272693
0.00022,4.036179,0.22106
0.00014,4.04018,0.135249
0.00018,4.04418,0.183302
0.00027,4.04818,0.274402
0.0001,4.05218,0.095896
0.00021,4.05618,0.205553
0.00023,4.06018,0.227464
0.00023,4.064181,0.228533
0.0003,4.068181,0.299771
0.00036,4.072181,0.36366
0.00028,4.076181,0.284212
0.00026,4.080181,0.26441
0.00043,4.084182,0.433888
0.00036,4.088182,0.360204
0.00036,4.092182,0.35851
0.00091,4.096182,0.910956
0.00148,4.100182,1.480893
0.00093,4.104182,0.925727
0.00043,4.108183,0.430371
0.00031,4.112183,0.307668
0.00037,4.116183,0.368082
0.00037,4.120183,0.370595
0.00032,4.124183,0.316466
0.00031,4.128183,0.314701
0.00031,4.132184,0.312179
0.00045,4.136184,0.450033
0.00039,4.140184,0.391023
0.00038,4.144184,0.378268
0.00031,4.148184,0.314671
0.00032,4.152185,0.32282
0.00036,4.156185,0.358541
0.00024,4.160185,0.242725
0.00047,4.164185,0.472651
0.00041,4.168185,0.413686
0.00029,4.172185,0.285995
0.00031,4.176186,0.308642
0.00048,4.180186,0.477325
0.00042,4.184186,0.420034
0.00047,4.188186,0.465643
0.00039,4.192186,0.386758
0.00038,4.196186,0.378739
0.00037,4.200187,0.373172
0.0004,4.204187,0.404045
0.0004,4.208187,0.397591
0.00037,4.212187,0.369111
0.00039,4.216187,0.389904
0.00036,4.220188,0.363811
0.00033,4.224188,0.329872
0.00042,4.228188,0.417305
0.00035,4.232188,0.349834
0.00045,4.236188,0.452205
0.00037,4.240188,0.372204
0.00035,4.244189,0.34983
0.00037,4.248189,0.368384
0.00037,4.252189,0.370143
0.00044,4.256189,0.436617
0.0003,4.260189,0.298446
0.00041,4.26419,0.411359
0.00039,4.26819,0.391631
0.00042,4.27219,0.421805
0.00035,4.27619,0.352278
0.00027,4.28019,0.272622
0.00037,4.28419,0.374016
0.00031,4.288191,0.312515
0.00038,4.292191,0.383309
0.00031,4.296191,0.306449
0.00034,4.300191,0.343833
0.00029,4.304191,0.292368
0.00038,4.308191,0.37621
0.00042,4.312192,0.418173
0.0003,4.316192,0.301043
0.00026,4.320192,0.26126
0.00023,4.324192,0.230568
0.00025,4.328192,0.252165
0.00029,4.332193,0.291887
0.00036,4.336193,0.355113
0.00026,4.340193,0.257507
0.00034,4.344193,0.341469
0.00024,4.348193,0.23697
0.00017,4.352193,0.172418
0.0003,4.356194,0.295769
0.00023,4.360194,0.225516
0.00017,4.364194,0.174372
0.00026,4.368194,0.258155
0.00019,4.372194,0.193895
0.00022,4.376194,0.22063
0.00013,4.380195,0.127308
0.00023,4.384195,0.230637
0.00023,4.388195,0.231098
0.00023,4.392195,0.23133
0.00017,4.396195,0.16831
0.00016,4.400196,0.159577
0.00016,4.404196,0.162872
8e-05,4.408196,0.075617
9e-05,4.412196,0.085247
9e-05,4.416196,0.085225
0.0001,4.420196,0.102484
5e-05,4.424197,0.052899
0.00012,4.428197,0.119721
0.00014,4.432197,0.139782
7e-05,4.436197,0.069642
6e-05,4.440197,0.056108
8e-05,4.444198,0.08388
-3e-05,4.448198,-0.025268
5e-05,4.452198,0.054273
4e-05,4.456198,0.040537
0.0,4.460198,0.004517
-0.0,4.464198,-0.001245
2e-05,4.468199,0.020158
-1e-05,4.472199,-0.01265
0.0,4.476199,0.003952
-8e-05,4.480199,-0.076662
-0.0001,4.484199,-0.095628
-0.00017,4.488199,-0.172652
-8e-05,4.4922,-0.07912
-0.00013,4.4962,-0.132713
-0.00012,4.5002,-0.119134
-0.00013,4.5042,-0.126195
-0.0002,4.5082,-0.198094
-0.00013,4.512201,-0.12666
-0.00022,4.516201,-0.223281
-0.00017,4.520201,-0.170327
-0.00023,4.524201,-0.232
-0.00022,4.528201,-0.222119
-0.00018,4.532201,-0.175603
-0.0002,4.536202,-0.196962
-0.00013,4.540202,-0.132731
-0.00021,4.544202,-0.20937
-0.00022,4.548202,-0.221459
-0.00035,4.552202,-0.345964
-6e-05,4.556202,-0.063652
-0.00034,4.560203,-0.338435
-0.00021,4.564203,-0.207734
-0.00023,4.568203,-0.228852
-0.00024,4.572203,-0.235427
-0.0003,4.576203,-0.296255
-0.00032,4.580204,-0.317889
-0.0003,4.584204,-0.30242
-0.00031,4.588204,-0.306632
-0.00024,4.592204,-0.243398
-0.0003,4.596204,-0.300038
-0.0003,4.600204,-0.295314
-0.00037,4.604205,-0.366575
-0.00036,4.608205,-0.356349
-0.00028,4.612205,-0.283094
-0.00041,4.616205,-0.411656
-0.00034,4.620205,-0.341845
-0.00031,4.624206,-0.305007
-0.00042,4.628206,-0.424314
-0.00032,4.632206,-0.317817
-0.00033,4.636206,-0.334654
-0.00035,4.640206,-0.354699
-0.00035,4.644206,-0.346216
-0.00036,4.648207,-0.361688
-0.00041,4.652207,-0.410227
-0.00034,4.656207,-0.342123
-0.00037,4.660207,-0.368737
-0.00035,4.664207,-0.351519
-0.00036,4.668207,-0.355706
-0.00029,4.672208,-0.292301
-0.00042,4.676208,-0.424534
-0.00037,4.680208,-0.373767
-0.00039,4.684208,-0.393058
-0.0004,4.688208,-0.395786
-0.00047,4.692209,-0.468857
-0.00033,4.696209,-0.327928
-0.00031,4.700209,-0.30786
-0.0004,4.704209,-0.400587
-0.00047,4.708209,-0.474266
-0.00045,4.712209,-0.445228
-0.00043,4.71621,-0.431713
-0.00036,4.72021,-0.358339
-0.00028,4.72421,-0.277533
-0.00041,4.72821,-0.413937
-0.00041,4.73221,-0.412388
-0.00036,4.73621,-0.364514
-0.00035,4.740211,-0.353922
-0.00032,4.744211,-0.317505
-0.00032,4.748211,-0.319524
-0.00036,4.752211,-0.356362
-0.00032,4.756211,-0.320994
-0.00033,4.760212,-0.334896
-0.00034,4.764212,-0.343141
-0.00033,4.768212,-0.331946
-0.00036,4.772212,-0.355308
-0.00039,4.776212,-0.393549
-0.00033,4.780212,-0.330941
-0.00039,4.784213,-0.390678
-0.00039,4.788213,-0.388788
-0.00038,4.792213,-0.379202
-0.00032,4.796213,-0.318588
-0.00029,4.800213,-0.287917
-0.00026,4.804214,-0.263865
-0.00027,4.808214,-0.273245
-0.0003,4.812214,-0.299443
-0.00029,4.816214,-0.289133
-0.00016,4.820214,-0.160219
-0.00032,4.824214,-0.321651
-0.00019,4.828215,-0.194172
-0.00025,4.832215,-0.250209
-0.0003,4.836215,-0.295638
-0.00025,4.840215,-0.252865
-0.00028,4.844215,-0.276533
-0.00022,4.848215,-0.222316
-0.00023,4.852216,-0.22679
-0.00025,4.856216,-0.253393
-0.00024,4.860216,-0.243615
-0.00026,4.864216,-0.261783
-0.00015,4.868216,-0.146415
-0.0002,4.872217,-0.195393
-0.00016,4.876217,-0.162197
-0.00014,4.880217,-0.138752
-0.00011,4.884217,-0.109033
-0.00012,4.888217,-0.121479
-0.00019,4.892217,-0.191728
-7e-05,4.896218,-0.065454
-0.00013,4.900218,-0.130312
-3e-05,4.904218,-0.027394
7e-05,4.908218,0.074825
-8e-05,4.912218,-0.082176
-0.0001,4.916218,-0.096452
-7e-05,4.920219,-0.074446
-6e-05,4.924219,-0.060171
-0.00013,4.928219,-0.125224
-9e-05,4.932219,-0.088803
1e-05,4.936219,0.012942
-4e-05,4.94022,-0.040024
-5e-05,4.94422,-0.047777
7e-05,4.94822,0.071426
-2e-05,4.95222,-0.019431
2e-05,4.95622,0.022455
1e-05,4.96022,0.007459
8e-05,4.964221,0.082252
3e-05,4.968221,0.025816
9e-05,4.972221,0.086119
0.00011,4.976221,0.111256
0.00012,4.980221,0.120366
0.0001,4.984222,0.102305
6e-05,4.988222,0.060901
0.00012,4.992222,0.115076
0.00016,4.996222,0.158501
0.00017,5.000222,0.174133
7e-05,5.004222,0.072991
0.0002,5.008223,0.199092
0.0002,5.012223,0.196071
0.00018,5.016223,0.182686
8e-05,5.020223,0.084649
0.00019,5.024223,0.185941
0.00013,5.028223,0.133183
0.00012,5.032224,0.115821
0.00025,5.036224,0.249709
0.00013,5.040224,0.127218
0.00016,5.044224,0.161356
0.00027,5.048224,0.27079
0.00013,5.052225,0.126304
0.00018,5.056225,0.175257
0.00019,5.060225,0.187019
0.00029,5.064225,0.291169
0.00025,5.068225,0.248339
0.00023,5.072225,0.234714
0.00029,5.076226,0.291289
0.00026,5.080226,0.259514
0.00031,5.084226,0.314801
0.00016,5.088226,0.159786
0.00044,5.092226,0.436007
0.00101,5.096226,1.01123
0.00164,5.100227,1.635508
0.00093,5.104227,0.927819
0.00048,5.108227,0.478076
0.00038,5.112227,0.382811
0.00035,5.116227,0.346427
0.0003,5.120228,0.300743
0.0003,5.124228,0.302891
0.00037,5.128228,0.369257
0.0003,5.132228,0.297846
0.00026,5.136228,0.256324
0.00042,5.140228,0.417231
0.0004,5.144229,0.403759
0.00034,5.148229,0.340476
0.00036,5.152229,0.356533
0.00041,5.156229,0.413378
0.00033,5.160229,0.325955
0.00036,5.16423,0.359706
0.00038,5.16823,0.375584
0.00035,5.17223,0.349848
0.00042,5.17623,0.418452
0.00041,5.18023,0.413464
0.00033,5.18423,0.332582
0.00046,5.188231,0.458713
0.00035,5.192231,0.348743
0.00036,5.196231,0.362135
0.00044,5.200231,0.443707
0.00047,5.204231,0.473098
0.00043,5.208231,0.43033
0.00036,5.212232,0.363372
0.00039,5.216232,0.385128
0.00043,5.220232,0.433209
0.0004,5.224232,0.397571
0.00035,5.228232,0.350918
0.00048,5.232233,0.476107
0.00036,5.236233,0.360658
0.00037,5.240233,0.368357
0.00047,5.244233,0.472458
0.00042,5.248233,0.420331
0.00034,5.252233,0.339858
0.00036,5.256234,0.364435
0.00042,5.260234,0.420595
0.00036,5.264234,0.360119
0.00039,5.268234,0.389272
0.00037,5.272234,0.367633
0.00035,5.276234,0.353241
0.00044,5.280235,0.438619
0.0003,5.284235,0.298285
0.00043,5.288235,0.432065
0.00036,5.292235,0.359971
0.00039,5.296235,0.385341
0.00037,5.300236,0.369864
0.0003,5.304236,0.299628
0.00039,5.308236,0.386583
0.00033,5.312236,0.326388
0.0003,5.316236,0.295217
0.0003,5.320236,0.298189
0.0003,5.324237,0.297566
0.00028,5.328237,0.283003
0.0002,5.332237,0.198124
0.00028,5.336237,0.284469
0.00016,5.340237,0.161768
0.00029,5.344238,0.285294
0.00035,5.348238,0.350122
0.00018,5.352238,0.175873
0.00019,5.356238,0.185357
0.00016,5.360238,0.16139
0.00016,5.364238,0.15688
0.00017,5.368239,0.172645
0.00018,5.372239,0.181104
0.00021,5.376239,0.205516
0.00013,5.380239,0.125638
0.0001,5.384239,0.102625
0.00019,5.388239,0.190229
0.00014,5.39224,0.141399
0.00011,5.39624,0.106276
0.00016,5.40024,0.163049
9e-05,5.40424,0.092332
0.00013,5.40824,0.13386
5e-05,5.412241,0.04538
0.00013,5.416241,0.131065
0.00017,5.420241,0.167914
5e-05,5.424241,0.052736
7e-05,5.428241,0.069809
0.00012,5.432241,0.11731
1e-05,5.436242,0.00877
8e-05,5.440242,0.07773
6e-05,5.444242,0.059983
4e-05,5.448242,0.042658
7e-05,5.452242,0.06932
2e-05,5.456242,0.02235
-1e-05,5.460243,-0.009845
-7e-05,5.464243,-0.073659
-5e-05,5.468243,-0.050506
-8e-05,5.472243,-0.080007
-0.00013,5.476243,-0.134014
-2e-05,5.480244,-0.021034
-0.00011,5.484244,-0.114034
-6e-05,5.488244,-0.062139
-9e-05,5.492244,-0.092881
-5e-05,5.496244,-0.052274
-0.0001,5.500244,-0.101286
-0.0001,5.504245,-0.103067
-0.00013,5.508245,-0.125395
-9e-05,5.512245,-0.086209
-0.00012,5.516245,-0.121623
-0.00011,5.520245,-0.106418
-0.00013,5.524246,-0.133912
-0.00019,5.528246,-0.185789
-0.00015,5.532246,-0.15435
-0.00025,5.536246,-0.254519
-0.00017,5.540246,-0.17291
-0.00021,5.544246,-0.211824
-0.00015,5.548247,-0.14589
-0.00022,5.552247,-0.223772
-0.00027,5.556247,-0.27302
-0.0002,5.560247,-0.197186
-0.00011,5.564247,-0.1138
-0.00025,5.568247,-0.245618
-0.00027,5.572248,-0.273315
-0.00032,5.576248,-0.315249
-0.00021,5.580248,-0.21445
-0.00041,5.584248,-0.412653
-0.0003,5.588248,-0.298486
-0.00039,5.592249,-0.391459
-0.00032,5.596249,-0.316369
-0.00031,5.600249,-0.306964
-0.00033,5.604249,-0.32932
-0.0003,5.608249,-0.298609
-0.00037,5.612249,-0.366162
-0.0003,5.61625,-0.304665
-0.00032,5.62025,-0.321024
-0.00044,5.62425,-0.439059
-0.00037,5.62825,-0.371017
-0.00036,5.63225,-0.358674
-0.00037,5.636251,-0.370419
-0.00035,5.640251,-0.346132
-0.00036,5.644251,-0.363729
-0.00037,5.648251,-0.365934
-0.0003,5.652251,-0.304343
-0.00039,5.656251,-0.386298
-0.00031,5.660252,-0.310221
-0.00044,5.664252,-0.440027
-0.00033,5.668252,-0.332181
-0.00036,5.672252,-0.360939
-0.00041,5.676252,-0.407902
-0.00047,5.680252,-0.470764
-0.00037,5.684253,-0.366776
-0.00044,5.688253,-0.436852
-0.00044,5.692253,-0.436825
-0.00034,5.696253,-0.340694
-0.00038,5.700253,-0.383948
-0.00034,5.704254,-0.344901
-0.00038,5.708254,-0.37626
-0.00037,5.712254,-0.368358
-0.00038,5.716254,-0.379522
-0.00038,5.720254,-0.384206
-0.00039,5.724254,-0.392432
-0.0004,5.728255,-0.395234
-0.00036,5.732255,-0.359089
-0.00042,5.736255,-0.418209
-0.00042,5.740255,-0.416064
-0.00034,5.744255,-0.338513
-0.00034,5.748255,-0.337367
-0.00045,5.752256,-0.453879
-0.00036,5.756256,-0.360164
-0.00036,5.760256,-0.355863
-0.00041,5.764256,-0.411309
-0.0002,5.768256,-0.202252
-0.00033,5.772257,-0.326216
-0.00031,5.776257,-0.313892
-0.00038,5.780257,-0.378172
-0.00036,5.784257,-0.364967
-0.00037,5.788257,-0.368959
-0.00034,5.792257,-0.33719
-0.00044,5.796258,-0.443837
-0.00026,5.800258,-0.264929
-0.00026,5.804258,-0.256953
-0.00031,5.808258,-0.308125
-0.00028,5.812258,-0.276542
-0.0003,5.816259,-0.295276
-0.00038,5.820259,-0.382386
-0.00029,5.824259,-0.287695
-0.00033,5.828259,-0.326876
-0.00027,5.832259,-0.270287
-0.00026,5.836259,-0.255077
-0.00023,5.84026,-0.233191
-0.00026,5.84426,-0.255279
-0.00023,5.84826,-0.227179
-0.0003,5.85226,-0.296668
-0.00024,5.85626,-0.236055
-0.00015,5.86026,-0.154527
-0.00018,5.864261,-0.17595
-0.00012,5.868261,-0.122666
-0.00015,5.872261,-0.154137
-0.00029,5.876261,-0.285741
-0.00015,5.880261,-0.15469
-0.00018,5.884262,-0.182644
-0.00012,5.888262,-0.118644
-0.00014,5.892262,-0.139309
-0.00013,5.896262,-0.134268
-7e-05,5.900262,-0.065433
-0.00011,5.904262,-0.109073
-0.00013,5.908263,-0.12756
-0.00013,5.912263,-0.126493
-0.00013,5.916263,-0.125279
-5e-05,5.920263,-0.049322
2e-05,5.924263,0.021733
-5e-05,5.928263,-0.053013
-2e-05,5.932264,-0.018354
-1e-05,5.936264,-0.007126
-4e-05,5.940264,-0.040811
-0.0,5.944264,-0.003281
-1e-05,5.948264,-0.013542
0.00011,5.952265,0.107386
-1e-05,5.956265,-0.010967
8e-05,5.960265,0.083928
-1e-05,5.964265,-0.005729
4e-05,5.968265,0.042535
-1e-05,5.972265,-0.012643
0.00011,5.976266,0.114076
0.00015,5.980266,0.146686
0.0001,5.984266,0.098293
0.00016,5.988266,0.160286
0.00022,5.992266,0.224927
0.00012,5.996267,0.120335
0.00021,6.000267,0.210181
0.00014,6.004267,0.143934
0.0002,6.008267,0.195403
5e-05,6.012267,0.048884
0.00018,6.016267,0.176164
0.00017,6.020268,0.16741
6e-05,6.024268,0.059458
0.00023,6.028268,0.232655
0.00016,6.032268,0.163103
0.0002,6.036268,0.196354
0.0002,6.040268,0.198984
0.0002,6.044269,0.201616
0.0002,6.048269,0.198097
0.0002,6.052269,0.202242
0.00032,6.056269,0.320566
0.00024,6.060269,0.238336
0.00029,6.06427,0.287982
0.00032,6.06827,0.317567
0.00021,6.07227,0.21317
0.00023,6.07627,0.229733
0.00021,6.08027,0.207583
0.0004,6.08427,0.40481
0.00031,6.088271,0.310561
0.00048,6.092271,0.479747
0.00094,6.096271,0.94415
0.00153,6.100271,1.532288
0.00091,6.104271,0.914191
0.00039,6.108271,0.386328
0.00025,6.112272,0.252847
0.00038,6.116272,0.377006
0.00035,6.120272,0.350587
0.00034,6.124272,0.3412
0.00035,6.128272,0.347057
0.00035,6.132273,0.353113
0.0003,6.136273,0.301096
0.00044,6.140273,0.44471
0.00032,6.144273,0.324019
0.00038,6.148273,0.381978
0.00038,6.152273,0.377856
0.00026,6.156274,0.261784
0.00039,6.160274,0.385298
0.00043,6.164274,0.430133
0.00033,6.168274,0.325146
0.00041,6.172274,0.405735
0.00037,6.176275,0.367383
0.00033,6.180275,0.328501
0.00044,6.184275,0.435438
0.00041,6.188275,0.407336
0.00043,6.192275,0.426893
0.00038,6.196275,0.380011
0.00037,6.200276,0.370162
0.0004,6.204276,0.399934
0.00031,6.208276,0.30693
0.00047,6.212276,0.465495
0.0004,6.216276,0.401209
0.00039,6.220276,0.38978
0.00037,6.224277,0.374378
0.0004,6.228277,0.400436
0.0004,6.232277,0.397895
0.00044,6.236277,0.435876
0.00042,6.240277,0.417614
0.00045,6.244278,0.451772
0.00036,6.248278,0.356171
0.00035,6.252278,0.347378
0.00026,6.256278,0.261459
0.00038,6.260278,0.375348
0.00034,6.264278,0.339031
0.00039,6.268279,0.389637
0.00026,6.272279,0.257314
0.00035,6.276279,0.351008
0.00027,6.280279,0.266816
0.00027,6.284279,0.272693
0.00033,6.288279,0.334192
0.00032,6.29228,0.323261
0.00038,6.29628,0.376633
0.00034,6.30028,0.342592
0.00028,6.30428,0.27589
0.00037,6.30828,0.366732
0.00036,6.312281,0.363847
0.00029,6.316281,0.292355
0.00026,6.320281,0.263114
0.00024,6.324281,0.242863
0.00021,6.328281,0.210179
0.00025,6.332281,0.249587
0.00028,6.336282,0.284368
0.00033,6.340282,0.328448
0.00023,6.344282,0.228544
0.00021,6.348282,0.2084
0.00024,6.352282,0.244871
0.00014,6.356283,0.139426
6e-05,6.360283,0.062481
0.00018,6.364283,0.184365
0.0001,6.368283,0.104418
0.00023,6.372283,0.225164
0.00021,6.376283,0.208724
0.00022,6.380284,0.216164
0.00019,6.384284,0.188937
0.00013,6.388284,0.126235
0.00011,6.392284,0.108829
7e-05,6.396284,0.06721
0.00016,6.400284,0.16336
0.00016,6.404285,0.164034
0.0001,6.408285,0.09604
5e-05,6.412285,0.04723
0.00012,6.416285,0.117764
4e-05,6.420285,0.044243
0.00011,6.424286,0.11483
8e-05,6.428286,0.075606
-3e-05,6.432286,-0.028986
4e-05,6.436286,0.038377
-4e-05,6.440286,-0.040752
0.0001,6.444286,0.099654
3e-05,6.448287,0.02707
0.0,6.452287,0.002077
-2e-05,6.456287,-0.017148
-4e-05,6.460287,-0.042439
0.0,6.464287,0.003207
-0.0,6.468287,-0.003208
-0.00011,6.472288,-0.110976
-0.0001,6.476288,-0.104235
-6e-05,6.480288,-0.058643
-0.00014,6.484288,-0.142035
-0.00012,6.488288,-0.118621
-0.0001,6.492289,-0.097202
-3e-05,6.496289,-0.026043
-0.00012,6.500289,-0.117742
-0.00012,6.504289,-0.116402
-0.00014,6.508289,-0.138675
-0.00016,6.512289,-0.164133
-0.00024,6.51629,-0.241302
-0.00013,6.52029,-0.133503
-0.0002,6.52429,-0.200542
-0.00029,6.52829,-0.287582
-0.00021,6.53229,-0.207235
-0.0002,6.536291,-0.200839
-0.00019,6.540291,-0.187788
-0.00024,6.544291,-0.243716
-0.00028,6.548291,-0.281153
-0.0002,6.552291,-0.204208
-0.00016,6.556291,-0.163502
-0.00025,6.560292,-0.248292
-0.00028,6.564292,-0.284516
-0.00028,6.568292,-0.282583
-0.00026,6.572292,-0.264604
-0.00035,6.576292,-0.345604
-0.00027,6.580292,-0.27129
-0.0004,6.584293,-0.39786
-0.0002,6.588293,-0.197563
-0.00029,6.592293,-0.294714
-0.00031,6.596293,-0.309869
-0.0002,6.600293,-0.195065
-0.00026,6.604294,-0.264532
-0.00035,6.608294,-0.350066
-0.00037,6.612294,-0.371703
-0.00036,6.616294,-0.364794
-0.00033,6.620294,-0.330604
-0.00033,6.624294,-0.333766
-0.00027,6.628295,-0.26584
-0.00036,6.632295,-0.364862
-0.00032,6.636295,-0.321979
-0.00037,6.640295,-0.369535
-0.00042,6.644295,-0.418297
-0.00038,6.648295,-0.376563
-0.00035,6.652296,-0.352088
-0.00035,6.656296,-0.35362
-0.00045,6.660296,-0.448727
-0.00045,6.664296,-0.454909
-0.0004,6.668296,-0.395585
-0.00043,6.672297,-0.427832
-0.00031,6.676297,-0.306395
-0.00037,6.680297,-0.373164
-0.00042,6.684297,-0.41633
-0.00038,6.688297,-0.384206
-0.00047,6.692297,-0.47189
-0.00031,6.696298,-0.306318
-0.00032,6.700298,-0.318835
-0.00038,6.704298,-0.377181
-0.00047,6.708298,-0.469901
-0.00043,6.712298,-0.428997
-0.00038,6.716299,-0.379212
-0.00041,6.720299,-0.407738
-0.00035,6.724299,-0.345581
-0.00042,6.728299,-0.421586
-0.00042,6.732299,-0.418746
-0.00044,6.736299,-0.443046
-0.00042,6.7403,-0.423116
-0.00046,6.7443,-0.461216
-0.0004,6.7483,-0.404749
-0.00033,6.7523,-0.328805
-0.00037,6.7563,-0.372572
-0.00033,6.7603,-0.333808
-0.0003,6.764301,-0.303224
-0.00033,6.768301,-0.33309
-0.00035,6.772301,-0.350449
-0.00034,6.776301,-0.340958
-0.00028,6.780301,-0.275798
-0.00033,6.784302,-0.331638
-0.00031,6.788302,-0.30874
-0.00031,6.792302,-0.308816
-0.00033,6.796302,-0.330286
-0.00026,6.800302,-0.263219
-0.00022,6.804302,-0.220944
-0.00028,6.808303,-0.278786
-0.00032,6.812303,-0.32088
-0.00028,6.816303,-0.284294
-0.00036,6.820303,-0.363476
-0.00023,6.824303,-0.233755
-0.00024,6.828303,-0.235724
-0.00018,6.832304,-0.175716
-0.0003,6.836304,-0.296345
-0.00029,6.840304,-0.288396
-0.00018,6.844304,-0.18309
-0.00025,6.848304,-0.245927
-0.00031,6.852305,-0.308527
-0.00023,6.856305,-0.227625
-0.00015,6.860305,-0.145198
-0.00024,6.864305,-0.235353
-0.00023,6.868305,-0.228321
-0.0002,6.872305,-0.19722
-0.00026,6.876306,-0.264955
-0.00015,6.880306,-0.151195
-0.00012,6.884306,-0.120653
-0.00015,6.888306,-0.14799
-0.00019,6.892306,-0.185136
-0.0002,6.896307,-0.199925
-0.00011,6.900307,-0.108814
-0.00014,6.904307,-0.14247
-0.00017,6.908307,-0.17175
-7e-05,6.912307,-0.070296
-3e-05,6.916307,-0.029332
0.0,6.920308,0.00092
-7e-05,6.924308,-0.068676
-5e-05,6.928308,-0.046926
-8e-05,6.932308,-0.07861
-3e-05,6.936308,-0.02558
-7e-05,6.940308,-0.073734
7e-05,6.944309,0.066777
9e-05,6.948309,0.093295
-0.0001,6.952309,-0.098969
-3e-05,6.956309,-0.032683
7e-05,6.960309,0.074477
3e-05,6.96431,0.031001
2e-05,6.96831,0.018786
0.0001,6.97231,0.095123
0.00017,6.97631,0.171932
0.0001,6.98031,0.102063
5e-05,6.98431,0.045136
0.00011,6.988311,0.111872
0.00013,6.992311,0.128878
6e-05,6.996311,0.061786
0.00011,7.000311,0.112722
0.00019,7.004311,0.189791
0.00011,7.008311,0.113118
4e-05,7.012312,0.035069
0.00024,7.016312,0.24376
0.00017,7.020312,0.16711
0.00023,7.024312,0.225388
0.00015,7.028312,0.154553
0.00011,7.032313,0.112628
0.00021,7.036313,0.208381
7e-05,7.040313,0.070216
0.00021,7.044313,0.209523
0.00025,7.048313,0.253651
0.00021,7.052313,0.205756
0.00025,7.056314,0.24972
0.00019,7.060314,0.185531
0.00026,7.064314,0.255458
0.00021,7.068314,0.208144
0.00026,7.072314,0.26068
0.00028,7.076315,0.279384
0.0003,7.080315,0.297602
0.0003,7.084315,0.301274
0.0003,7.088315,0.299831
0.00045,7.092315,0.446214
0.00113,7.096315,1.12952
0.0015,7.100316,1.50465
0.00084,7.104316,0.841848
0.00047,7.108316,0.474447
0.00042,7.112316,0.418937
0.0003,7.116316,0.296967
0.00039,7.120316,0.39329
0.00032,7.124317,0.322689
0.00031,7.128317,0.309864
0.00039,7.132317,0.38579
0.00037,7.136317,0.371869
0.00038,7.140317,0.383655
0.00042,7.144318,0.422355
0.00031,7.148318,0.311643
0.00036,7.152318,0.359193
0.0004,7.156318,0.396275
0.00048,7.160318,0.484216
0.00034,7.164318,0.335462
0.00032,7.168319,0.32073
0.00033,7.172319,0.326666
0.00046,7.176319,0.463155
0.00039,7.180319,0.386933
0.00037,7.184319,0.370906
0.00047,7.188319,0.474199
0.0005,7.19232,0.501203
0.00031,7.19632,0.311825
0.00045,7.20032,0.445008
0.00044,7.20432,0.438112
0.00037,7.20832,0.369195
0.00043,7.212321,0.434133
0.00033,7.216321,0.328758
0.00042,7.220321,0.420094
0.00039,7.224321,0.391572
0.0004,7.228321,0.395531
0.00044,7.232321,0.438105
0.00044,7.236322,0.441623
0.00048,7.240322,0.48324
0.00036,7.244322,0.361257
0.00034,7.248322,0.343147
0.00042,7.252322,0.418988
0.00032,7.256323,0.317088
0.00028,7.260323,0.276037
0.00028,7.264323,0.279342
0.00032,7.268323,0.324831
0.00033,7.272323,0.329613
0.00023,7.276323,0.228684
0.00032,7.280324,0.315412
0.00033,7.284324,0.329862
0.00034,7.288324,0.335275
0.00037,7.292324,0.371041
0.0004,7.296324,0.397996
0.00029,7.300324,0.293301
0.00027,7.304325,0.270537
0.00032,7.308325,0.32237
0.00029,7.312325,0.294143
0.0003,7.316325,0.297722
0.00032,7.320325,0.319546
0.00027,7.324326,0.27496
0.0003,7.328326,0.304442
0.00022,7.332326,0.215923
0.00035,7.336326,0.350865
0.00028,7.340326,0.279335
0.00025,7.344326,0.246571
0.00023,7.348327,0.231354
0.00025,7.352327,0.24553
0.00025,7.356327,0.250015
0.00021,7.360327,0.210404
0.00017,7.364327,0.165984
0.00016,7.368327,0.163452
0.00014,7.372328,0.135691
0.0002,7.376328,0.202482
0.00024,7.380328,0.242309
0.00018,7.384328,0.177868
0.00015,7.388328,0.150973
0.0001,7.392329,0.103119
7e-05,7.396329,0.065706
0.00017,7.400329,0.168594
8e-05,7.404329,0.076142
0.0001,7.408329,0.096985
0.0001,7.412329,0.097991
0.00011,7.41633,0.105883
6e-05,7.42033,0.059761
-1e-05,7.42433,-0.009763
7e-05,7.42833,0.070456
1e-05,7.43233,0.009649
-8e-05,7.436331,-0.076982
9e-05,7.440331,0.09194
-3e-05,7.444331,-0.029483
3e-05,7.448331,0.033051
2e-05,7.452331,0.024267
5e-05,7.456331,0.047664
-1e-05,7.460332,-0.011018
-2e-05,7.464332,-0.02111
-5e-05,7.468332,-0.050337
-1e-05,7.472332,-0.01062
-4e-05,7.476332,-0.035729
-0.0001,7.480332,-0.098741
-0.00013,7.484333,-0.127235
-8e-05,7.488333,-0.081103
-0.00016,7.492333,-0.163084
-6e-05,7.496333,-0.059758
-0.00012,7.500333,-0.123643
-8e-05,7.504334,-0.084554
-0.00011,7.508334,-0.105019
-0.00018,7.512334,-0.180546
-0.00016,7.516334,-0.160184
-0.00014,7.520334,-0.140723
-7e-05,7.524334,-0.06659
-0.0002,7.528335,-0.201315
-0.00015,7.532335,-0.153154
-0.00033,7.536335,-0.326997
-0.00018,7.540335,-0.175292
-0.00026,7.544335,-0.256974
-0.00028,7.548335,-0.279711
-0.0002,7.552336,-0.204424
-0.00025,7.556336,-0.250482
-0.00022,7.560336,-0.217182
-0.00033,7.564336,-0.333757
-0.00027,7.568336,-0.266164
-0.00027,7.572337,-0.273118
-0.00025,7.576337,-0.249105
-0.00022,7.580337,-0.220339
-0.00033,7.584337,-0.332669
-0.00029,7.588337,-0.288692
-0.00031,7.592337,-0.308629
-0.00029,7.596338,-0.286328
-0.00038,7.600338,-0.381621
-0.00028,7.604338,-0.275169
-0.00026,7.608338,-0.257968
-0.00033,7.612338,-0.331687
-0.00033,7.616339,-0.334748
-0.00033,7.620339,-0.33106
-0.00033,7.624339,-0.325561
-0.00035,7.628339,-0.350138
-0.00036,7.632339,-0.361072
-0.00027,7.636339,-0.26699
-0.00038,7.64034,-0.382252
-0.0003,7.64434,-0.297355
-0.00033,7.64834,-0.328678
-0.00038,7.65234,-0.382894
-0.00036,7.65634,-0.35596
-0.00037,7.66034,-0.374364
-0.0004,7.664341,-0.404731
-0.00043,7.668341,-0.433353
-0.00031,7.672341,-0.31058
-0.00044,7.676341,-0.437061
-0.00029,7.680341,-0.285727
-0.00034,7.684342,-0.340953
-0.00036,7.688342,-0.355525
-0.00036,7.692342,-0.364949
-0.00037,7.696342,-0.370261
-0.00043,7.700342,-0.434112
-0.00044,7.704342,-0.440033
-0.00037,7.708343,-0.367346
-0.00046,7.712343,-0.456813
-0.00037,7.716343,-0.366081
-0.00043,7.720343,-0.428722
-0.00031,7.724343,-0.30842
-0.00042,7.728343,-0.420339
-0.0004,7.732344,-0.399867
-0.00032,7.736344,-0.319166
-0.00039,7.740344,-0.388601
-0.00034,7.744344,-0.33508
-0.0004,7.748344,-0.40264
-0.00039,7.752345,-0.385709
-0.00027,7.756345,-0.272138
-0.00044,7.760345,-0.441437
-0.00038,7.764345,-0.38085
-0.00034,7.768345,-0.335862
-0.00033,7.772345,-0.334492
-0.00037,7.776346,-0.367625
-0.00036,7.780346,-0.35789
-0.00037,7.784346,-0.369145
-0.00031,7.788346,-0.313244
-0.00026,7.792346,-0.259291
-0.00027,7.796347,-0.265436
-0.00037,7.800347,-0.369546
-0.00028,7.804347,-0.282873
-0.00034,7.808347,-0.341161
-0.00034,7.812347,-0.340308
-0.00029,7.816347,-0.293397
-0.00026,7.820348,-0.257891
-0.00037,7.824348,-0.370616
-0.00026,7.828348,-0.263142
-0.00027,7.832348,-0.26792
-0.00034,7.836348,-0.342059
-0.00029,7.840348,-0.294267
-0.00027,7.844349,-0.267315
-0.00026,7.848349,-0.26251
-0.00027,7.852349,-0.27439
-0.00025,7.856349,-0.249625
-0.0002,7.860349,-0.202176
-0.00032,7.86435,-0.324444
-0.00017,7.86835,-0.174978
-0.00017,7.87235,-0.165542
-0.00011,7.87635,-0.112839
-0.00018,7.88035,-0.175753
-9e-05,7.88435,-0.089226
-9e-05,7.888351,-0.086593
-0.00011,7.892351,-0.11376
-0.00013,7.896351,-0.134151
-0.00013,7.900351,-0.130469
-9e-05,7.904351,-0.089373
-9e-05,7.908351,-0.089737
-6e-05,7.912352,-0.057987
-0.00011,7.916352,-0.114646
-0.0001,7.920352,-0.103432
-9e-05,7.924352,-0.09302
0.0,7.928352,0.001462
-3e-05,7.932353,-0.02544
-0.0001,7.936353,-0.100494
3e-05,7.940353,0.028157
-3e-05,7.944353,-0.026806
-7e-05,7.948353,-0.07156
0.0,7.952353,0.004936
2e-05,7.956354,0.02015
6e-05,7.960354,0.056456
-1e-05,7.964354,-0.00679
-2e-05,7.968354,-0.020041
5e-05,7.972354,0.046585
7e-05,7.976355,0.065756
-8e-05,7.980355,-0.075418
0.00014,7.984355,0.136279
4e-05,7.988355,0.03519
9e-05,7.992355,0.093615
0.00012,7.996355,0.120292
0.0002,8.000356,0.204072
0.00015,8.004356,0.145216
0.0001,8.008356,0.102007
9e-05,8.012356,0.094512
0.00018,8.016356,0.178731
0.00015,8.020356,0.147735
0.00012,8.024357,0.121147
0.00022,8.028357,0.22286
0.00022,8.032357,0.222969
0.00018,8.036357,0.179708
0.00025,8.040357,0.253475
0.00023,8.044358,0.232045
0.00022,8.048358,0.223386
0.00019,8.052358,0.188221
0.0002,8.056358,0.196385
0.00035,8.060358,0.347695
0.00022,8.064358,0.222316
0.00022,8.068359,0.219819
0.00036,8.072359,0.364201
0.00034,8.076359,0.338442
0.00022,8.080359,0.217733
0.00031,8.084359,0.309539
0.00027,8.088359,0.27495
0.00043,8.09236,0.432387
0.00101,8.09636,1.013732
0.00146,8.10036,1.45713
0.00087,8.10436,0.869334
0.0005,8.10836,0.500404
0.00047,8.112361,0.47155
0.00036,8.116361,0.36295
0.00039,8.120361,0.387613
0.00032,8.124361,0.317122
0.00029,8.128361,0.291923
0.00047,8.132361,0.466754
0.00027,8.136362,0.265745
0.00042,8.140362,0.416094
0.00038,8.144362,0.381684
0.00038,8.148362,0.381574
0.00032,8.152362,0.318748
0.0004,8.156363,0.399366
0.00041,8.160363,0.412365
0.00047,8.164363,0.473289
0.00036,8.168363,0.363733
0.00034,8.172363,0.337594
0.00043,8.176363,0.433924
0.00033,8.180364,0.325643
0.00036,8.184364,0.357783
0.00037,8.188364,0.369243
0.00046,8.192364,0.457467
0.00039,8.196364,0.390017
0.00041,8.200364,0.41137
0.0004,8.204365,0.396531
0.00032,8.208365,0.323552
0.0004,8.212365,0.397144
0.00051,8.216365,0.514331
0.00038,8.220365,0.379394
0.00044,8.224366,0.439006
0.0004,8.228366,0.404348
0.00037,8.232366,0.368451
0.00036,8.236366,0.357747
0.00054,8.240366,0.536569
0.00045,8.244366,0.452262
0.00031,8.248367,0.314152
0.00035,8.252367,0.345362
0.00044,8.256367,0.442712
0.00037,8.260367,0.368743
0.00029,8.264367,0.293347
0.00027,8.268367,0.269918
0.00032,8.272368,0.319089
0.00036,8.276368,0.355517
0.00024,8.280368,0.24399
0.00034,8.284368,0.339806
0.0003,8.288368,0.297844
0.00029,8.292369,0.290471
0.00037,8.296369,0.369453
0.00024,8.300369,0.241531
0.00035,8.304369,0.349972
0.00032,8.308369,0.317284
0.0003,8.312369,0.299557
0.00027,8.31637,0.269416
0.00025,8.32037,0.249668
0.00026,8.32437,0.259025
0.00031,8.32837,0.312789
0.00026,8.33237,0.25745
0.00033,8.336371,0.332099
0.00029,8.340371,0.293537
0.00023,8.344371,0.234619
0.00021,8.348371,0.214096
0.00028,8.352371,0.27546
0.00018,8.356371,0.181237
0.00023,8.360372,0.22829
0.00022,8.364372,0.218821
0.00013,8.368372,0.125276
0.00013,8.372372,0.131885
0.00023,8.376372,0.23395
3e-05,8.380372,0.034813
0.00012,8.384373,0.124297
0.00018,8.388373,0.178698
0.00015,8.392373,0.146788
0.00016,8.396373,0.161072
6e-05,8.400373,0.062657
0.00013,8.404374,0.13334
0.00011,8.408374,0.107672
9e-05,8.412374,0.085438
2e-05,8.416374,0.024577
3e-05,8.420374,0.030678
9e-05,8.424374,0.090942
1e-05,8.428375,0.010955
0.0,8.432375,0.001547
0.00011,8.436375,0.113447
-5e-05,8.440375,-0.046233
2e-05,8.444375,0.016305
-0.0,8.448375,-0.002025
2e-05,8.452376,0.023998
-7e-05,8.456376,-0.070133
3e-05,8.460376,0.034915
-0.00016,8.464376,-0.155461
-5e-05,8.468376,-0.04673
-0.00013,8.472377,-0.125878
-0.0001,8.476377,-0.095486
-0.00011,8.480377,-0.107259
-0.00012,8.484377,-0.118878
-7e-05,8.488377,-0.066495
-4e-05,8.492377,-0.038078
-9e-05,8.496378,-0.090503
-7e-05,8.500378,-0.074631
-0.00014,8.504378,-0.144064
-9e-05,8.508378,-0.087995
-0.00016,8.512378,-0.160297
-0.00019,8.516379,-0.194845
-0.00016,8.520379,-0.162276
-0.00015,8.524379,-0.148776
-0.0001,8.528379,-0.097659
-0.00012,8.532379,-0.121106
-0.00021,8.536379,-0.213509
-0.00017,8.54038,-0.173392
-0.00016,8.54438,-0.159787
-9e-05,8.54838,-0.089411
-0.00031,8.55238,-0.306619
-0.00022,8.55638,-0.222605
-0.0002,8.56038,-0.198119
-0.0002,8.564381,-0.202218
-0.00026,8.568381,-0.263095
-0.00032,8.572381,-0.315067
-0.00026,8.576381,-0.256326
-0.0003,8.580381,-0.300991
-0.00026,8.584382,-0.256525
-0.00028,8.588382,-0.279836
-0.00032,8.592382,-0.31898
-0.00028,8.596382,-0.275621
-0.0003,8.600382,-0.30061
-0.00035,8.604382,-0.353393
-0.00026,8.608383,-0.264853
-0.00033,8.612383,-0.332664
-0.00028,8.616383,-0.283373
-0.00039,8.620383,-0.38643
-0.0003,8.624383,-0.299862
-0.00035,8.628383,-0.351253
-0.00032,8.632384,-0.324628
-0.00036,8.636384,-0.360082
-0.00038,8.640384,-0.382182
-0.00037,8.644384,-0.368521
-0.00036,8.648384,-0.36081
-0.00037,8.652385,-0.366309
-0.00033,8.656385,-0.328861
-0.00044,8.660385,-0.441661
-0.00047,8.664385,-0.471023
-0.00037,8.668385,-0.371776
-0.0003,8.672385,-0.301997
-0.00043,8.676386,-0.427862
-0.00035,8.680386,-0.348598
-0.00042,8.684386,-0.420496
-0.00044,8.688386,-0.439327
-0.00041,8.692386,-0.409255
-0.0004,8.696387,-0.402175
-0.00039,8.700387,-0.386118
-0.00036,8.704387,-0.363525
-0.00037,8.708387,-0.368713
-0.00041,8.712387,-0.412727
-0.00041,8.716387,-0.409366
-0.0004,8.720388,-0.404407
-0.00023,8.724388,-0.233215
-0.00041,8.728388,-0.409681
-0.00038,8.732388,-0.375625
-0.00039,8.736388,-0.388234
-0.00039,8.740388,-0.392992
-0.00039,8.744389,-0.394479
-0.00046,8.748389,-0.458005
-0.00037,8.752389,-0.369132
-0.00036,8.756389,-0.359484
-0.00039,8.760389,-0.393694
-0.00038,8.76439,-0.382616
-0.00032,8.76839,-0.323138
-0.00036,8.77239,-0.363789
-0.00031,8.77639,-0.310667
-0.00036,8.78039,-0.36345
-0.00028,8.78439,-0.278737
-0.0003,8.788391,-0.296275
-0.00023,8.792391,-0.234423
-0.0004,8.796391,-0.397488
-0.00029,8.800391,-0.290443
-0.00037,8.804391,-0.372462
-0.00034,8.808391,-0.338961
-0.00031,8.812392,-0.30656
-0.00026,8.816392,-0.264077
-0.0003,8.820392,-0.295993
-0.00031,8.824392,-0.310307
-0.00034,8.828392,-0.342729
-0.00031,8.832393,-0.311326
-0.00027,8.836393,-0.268334
-0.00027,8.840393,-0.265426
-0.00016,8.844393,-0.157147
-0.00018,8.848393,-0.18015
-0.00027,8.852393,-0.268315
-0.00015,8.856394,-0.151528
-0.00024,8.860394,-0.236855
-0.00028,8.864394,-0.284174
-0.00015,8.868394,-0.150788
-0.00014,8.872394,-0.139691
-0.00015,8.876395,-0.148463
-0.00018,8.880395,-0.180437
-7e-05,8.884395,-0.069489
-0.00015,8.888395,-0.150273
-7e-05,8.892395,-0.074096
-0.00018,8.896395,-0.176604
-0.00018,8.900396,-0.179222
-0.00015,8.904396,-0.1545
-0.00017,8.908396,-0.166157
-0.00018,8.912396,-0.180832
-0.00012,8.916396,-0.117593
-8e-05,8.920396,-0.07682
-0.00012,8.924397,-0.120141
-8e-05,8.928397,-0.08057
-9e-05,8.932397,-0.085216
-5e-05,8.936397,-0.054688
-2e-05,8.940397,-0.020688
0.0,8.944398,0.003319
-4e-05,8.948398,-0.037888
0.00011,8.952398,0.108143
-2e-05,8.956398,-0.018232
9e-05,8.960398,0.088446
0.0,8.964398,0.003381
5e-05,8.968399,0.053559
-0.0,8.972399,-0.001605
2e-05,8.976399,0.022785
0.00016,8.980399,0.1576
0.0001,8.984399,0.101238
9e-05,8.988399,0.089454
7e-05,8.9924,0.071598
0.00014,8.9964,0.136615
4e-05,9.0004,0.041166
0.00021,9.0044,0.210342
0.00011,9.0084,0.109205
0.0001,9.012401,0.098197
0.00013,9.016401,0.134
9e-05,9.020401,0.091473
0.0001,9.024401,0.104737
0.00013,9.028401,0.130638
0.00019,9.032401,0.186258
0.0002,9.036402,0.204002
0.00025,9.040402,0.248139
0.00021,9.044402,0.205298
0.00018,9.048402,0.176039
0.00023,9.052402,0.233834
0.00026,9.056403,0.257551
0.00034,9.060403,0.341893
0.00029,9.064403,0.287383
0.00032,9.068403,0.316589
0.00024,9.072403,0.240095
0.00025,9.076403,0.252858
0.00024,9.080404,0.23801
0.00017,9.084404,0.165444
0.00032,9.088404,0.324288
0.00036,9.092404,0.361393
0.00103,9.096404,1.025646
0.00153,9.100404,1.532516
0.00087,9.104405,0.867912
0.00049,9.108405,0.485532
0.00035,9.112405,0.34509
0.00042,9.116405,0.421576
0.00033,9.120405,0.332284
0.00039,9.124406,0.393715
0.00033,9.128406,0.328407
0.00028,9.132406,0.282218
0.00038,9.136406,0.379496
0.00032,9.140406,0.321926
0.0004,9.144406,0.397679
0.00032,9.148407,0.321285
0.00043,9.152407,0.426325
0.00034,9.156407,0.338645
0.00042,9.160407,0.415758
0.00028,9.164407,0.27807
0.00029,9.168407,0.29413
0.00036,9.172408,0.361828
0.00033,9.176408,0.328828
0.00035,9.180408,0.350146
0.00046,9.184408,0.461737
0.00037,9.188408,0.369913
0.00043,9.192409,0.425455
0.00044,9.196409,0.436562
0.00032,9.200409,0.315517
0.00041,9.204409,0.408436
0.00043,9.208409,0.425289
0.0004,9.212409,0.399478
0.00039,9.21641,0.386537
0.00039,9.22041,0.388252
0.00042,9.22441,0.417154
0.00043,9.22841,0.428358
0.0004,9.23241,0.404111
0.0004,9.236411,0.400738
0.0004,9.240411,0.403056
0.00046,9.244411,0.461757
0.00037,9.248411,0.368606
0.00035,9.252411,0.348621
0.00037,9.256411,0.370727
0.00036,9.260412,0.356342
0.00039,9.264412,0.391318
0.00034,9.268412,0.34304
0.0004,9.272412,0.404844
0.00036,9.276412,0.363409
0.00038,9.280412,0.377789
0.00038,9.284413,0.379245
0.00032,9.288413,0.319551
0.00039,9.292413,0.39238
0.00032,9.296413,0.316541
0.00042,9.300413,0.424739
0.00034,9.304414,0.343459
0.00032,9.308414,0.321125
0.00031,9.312414,0.31467
0.00034,9.316414,0.339352
0.00034,9.320414,0.335545
0.00039,9.324414,0.39458
0.00033,9.328415,0.328997
0.00039,9.332415,0.386828
0.00026,9.336415,0.2611
0.00026,9.340415,0.259972
0.00022,9.344415,0.223022
0.00026,9.348415,0.256821
0.00014,9.352416,0.138123
0.00024,9.356416,0.23588
0.0002,9.360416,0.196771
0.00017,9.364416,0.17428
0.00018,9.368416,0.181524
0.00017,9.372417,0.166538
0.00017,9.376417,0.17045
0.00011,9.380417,0.106672
0.00021,9.384417,0.20651
0.00017,9.388417,0.168617
0.00023,9.392417,0.231494
0.00013,9.396418,0.125632
0.00022,9.400418,0.220361
0.00017,9.404418,0.169569
0.00019,9.408418,0.189398
0.00012,9.412418,0.124347
0.0001,9.416419,0.104542
8e-05,9.420419,0.075883
5e-05,9.424419,0.048765
8e-05,9.428419,0.080422
-2e-05,9.432419,-0.019939
-2e-05,9.436419,-0.023612
0.00013,9.44042,0.131402
4e-05,9.44442,0.038548
-6e-05,9.44842,-0.055322
-0.0,9.45242,-0.000639
-4e-05,9.45642,-0.039649
-3e-05,9.46042,-0.029412
2e-05,9.464421,0.02373
-1e-05,9.468421,-0.014819
-7e-05,9.472421,-0.069615
-4e-05,9.476421,-0.037717
-0.00014,9.480421,-0.140587
-0.0001,9.484422,-0.102957
-0.00013,9.488422,-0.13179
-0.0001,9.492422,-0.100057
-0.00014,9.496422,-0.142234
-0.00017,9.500422,-0.168878
-0.00013,9.504422,-0.131083
-4e-05,9.508423,-0.044915
-0.00013,9.512423,-0.127108
-9e-05,9.516423,-0.086033
-0.00014,9.520423,-0.137718
-0.00011,9.524423,-0.109991
-0.00017,9.528423,-0.17287
-0.00016,9.532424,-0.162601
-0.00014,9.536424,-0.139132
-0.00026,9.540424,-0.260674
-0.00029,9.544424,-0.289661
-0.00011,9.548424,-0.113397
-0.00028,9.552425,-0.27559
-0.00027,9.556425,-0.272519
-0.00026,9.560425,-0.258966
-0.00021,9.564425,-0.207504
-0.0003,9.568425,-0.300317
-0.00029,9.572425,-0.287666
-0.00028,9.576426,-0.278086
-0.00026,9.580426,-0.257363
-0.00041,9.584426,-0.414051
-0.00028,9.588426,-0.275518
-0.00031,9.592426,-0.305418
-0.00033,9.596427,-0.328564
-0.00026,9.600427,-0.260883
-0.00033,9.604427,-0.32811
-0.00035,9.608427,-0.352571
-0.00035,9.612427,-0.349251
-0.00037,9.616427,-0.365627
-0.00026,9.620428,-0.258576
-0.00028,9.624428,-0.27637
-0.00031,9.628428,-0.311279
-0.00038,9.632428,-0.379506
-0.00038,9.636428,-0.379647
-0.00041,9.640428,-0.410551
-0.00032,9.644429,-0.318871
-0.00038,9.648429,-0.375709
-0.00041,9.652429,-0.405875
-0.00032,9.656429,-0.324805
-0.00037,9.660429,-0.37136
-0.00034,9.66443,-0.337536
-0.00032,9.66843,-0.315494
-0.00041,9.67243,-0.407715
-0.0004,9.67643,-0.401313
-0.00039,9.68043,-0.390152
-0.00038,9.68443,-0.375506
-0.0003,9.688431,-0.298871
-0.00035,9.692431,-0.345341
-0.00041,9.696431,-0.412957
-0.00034,9.700431,-0.337774
-0.00053,9.704431,-0.529375
-0.00042,9.708431,-0.417452
-0.00037,9.712432,-0.368289
-0.00041,9.716432,-0.4102
-0.00039,9.720432,-0.389467
-0.0004,9.724432,-0.398277
-0.00042,9.728432,-0.417459
-0.00038,9.732433,-0.383462
-0.00027,9.736433,-0.269037
-0.00035,9.740433,-0.354801
-0.00028,9.744433,-0.284455
-0.00032,9.748433,-0.315116
-0.00035,9.752433,-0.351688
-0.00032,9.756434,-0.317519
-0.00038,9.760434,-0.383959
-0.00036,9.764434,-0.36161
-0.00026,9.768434,-0.259017
-0.00025,9.772434,-0.2499
-0.00043,9.776435,-0.429026
-0.00032,9.780435,-0.322271
-0.0004,9.784435,-0.403945
-0.00045,9.788435,-0.454919
-0.00034,9.792435,-0.339169
-0.00029,9.796435,-0.291405
-0.00036,9.800436,-0.3606
-0.00037,9.804436,-0.373545
-0.00035,9.808436,-0.352073
-0.00036,9.812436,-0.356016
-0.00035,9.816436,-0.346036
-0.00033,9.820436,-0.3321
-0.0002,9.824437,-0.202147
-0.00027,9.828437,-0.268139
-0.00029,9.832437,-0.288948
-0.00029,9.836437,-0.291859
-0.00015,9.840437,-0.154171
-0.00028,9.844438,-0.279939
-0.00025,9.848438,-0.246676
-0.00025,9.852438,-0.252164
-0.00022,9.856438,-0.222729
-0.00022,9.860438,-0.218568
-0.00014,9.864438,-0.139071
-0.00022,9.868439,-0.218889
-0.00019,9.872439,-0.187499
-0.00019,9.876439,-0.190898
-0.00015,9.880439,-0.14707
-0.00015,9.884439,-0.154286
-9e-05,9.888439,-0.08676
-0.00016,9.89244,-0.157205
-0.00012,9.89644,-0.117838
-9e-05,9.90044,-0.086407
-0.00015,9.90444,-0.14653
-6e-05,9.90844,-0.062169
1e-05,9.912441,0.014657
-8e-05,9.916441,-0.08182
2e-05,9.920441,0.015943
-7e-05,9.924441,-0.069862
-3e-05,9.928441,-0.027284
-0.00013,9.932441,-0.131451
1e-05,9.936442,0.012127
-5e-05,9.940442,-0.047844
8e-05,9.944442,0.084358
-6e-05,9.948442,-0.05993
2e-05,9.952442,0.018833
-0.0,9.956443,-0.000213
1e-05,9.960443,0.008721
5e-05,9.964443,0.052732
1e-05,9.968443,0.010071
3e-05,9.972443,0.030594
0.00017,9.976443,0.173702
-1e-05,9.980444,-0.00559
0.0002,9.984444,0.197093
5e-05,9.988444,0.053318
0.00014,9.992444,0.136984
0.00016,9.996444,0.161156
0.00015,10.000444,0.149059
0.0001,10.004445,0.09903
9e-05,10.008445,0.086497
0.00016,10.012445,0.155679
0.00019,10.016445,0.189043
0.00014,10.020445,0.141826
0.00021,10.024446,0.213389
0.00014,10.028446,0.137837
0.00021,10.032446,0.208102
0.00017,10.036446,0.16504
0.00016,10.040446,0.162672
0.00018,10.044446,0.182454
0.00033,10.048447,0.327461
0.00025,10.052447,0.253479
0.0003,10.056447,0.302098
0.00025,10.060447,0.24659
0.00025,10.064447,0.24994
0.00029,10.068447,0.291743
0.00033,10.072448,0.331498
0.00028,10.076448,0.280033
0.00026,10.080448,0.261151
0.00031,10.084448,0.307304
0.00026,10.088448,0.2566
0.00044,10.092449,0.442241
0.00085,10.096449,0.85073
0.00144,10.100449,1.443546
0.00083,10.104449,0.829559
0.00037,10.108449,0.370598
0.00036,10.112449,0.361564
0.00037,10.11645,0.369046
0.00039,10.12045,0.38535
0.00033,10.12445,0.332035
0.00031,10.12845,0.313583
0.00032,10.13245,0.316384
0.00039,10.136451,0.392913
0.0004,10.140451,0.395212
0.00036,10.144451,0.360386
0.00032,10.148451,0.319679
0.0004,10.152451,0.398217
0.00033,10.156451,0.331223
0.00036,10.160452,0.360699
0.00031,10.164452,0.307608
0.00045,10.168452,0.449617
0.00028,10.172452,0.284633
0.00035,10.176452,0.346615
0.0004,10.180452,0.404887
0.00043,10.184453,0.426695
0.00034,10.188453,0.34056
0.00038,10.192453,0.380052
0.00044,10.196453,0.439294
0.00035,10.200453,0.351488
0.00039,10.204454,0.393703
0.0003,10.208454,0.298362
0.0004,10.212454,0.404182
0.00041,10.216454,0.406668
0.00029,10.220454,0.293947
0.0004,10.224454,0.396912
0.00029,10.228455,0.286141
0.00041,10.232455,0.407095
0.00038,10.236455,0.384717
0.00033,10.240455,0.326258
0.00037,10.244455,0.3658
0.00035,10.248455,0.353295
0.0003,10.252456,0.298295
0.00037,10.256456,0.368202
0.00033,10.260456,0.328105
0.00042,10.264456,0.417692
0.00039,10.268456,0.388625
0.00035,10.272457,0.351787
0.00038,10.276457,0.379884
0.00037,10.280457,0.366524
0.00035,10.284457,0.347786
0.00036,10.288457,0.36084
0.00039,10.292457,0.39022
0.00032,10.296458,0.323147
0.00034,10.300458,0.341658
0.00028,10.304458,0.281696
0.00034,10.308458,0.336493
0.00034,10.312458,0.335403
0.00032,10.316459,0.319698
0.00025,10.320459,0.247718
0.00026,10.324459,0.262083
0.00035,10.328459,0.351113
0.00028,10.332459,0.276441
0.0003,10.336459,0.304157
0.00017,10.34046,0.17113
0.00018,10.34446,0.181569
0.00018,10.34846,0.175694
0.00019,10.35246,0.189923
0.00026,10.35646,0.258232
0.00019,10.36046,0.190029
0.00022,10.364461,0.216537
0.00013,10.368461,0.126206
0.00019,10.372461,0.193087
0.00022,10.376461,0.215806
0.00016,10.380461,0.159895
0.00024,10.384462,0.241531
0.00012,10.388462,0.124738
0.00022,10.392462,0.217375
7e-05,10.396462,0.072666
0.00012,10.400462,0.117055
0.00018,10.404462,0.178708
5e-05,10.408463,0.052996
9e-05,10.412463,0.087526
9e-05,10.416463,0.092331
0.00016,10.420463,0.160675
1e-05,10.424463,0.008771
8e-05,10.428463,0.08216
0.0,10.432464,0.001355
8e-05,10.436464,0.0839
4e-05,10.440464,0.043478
-2e-05,10.444464,-0.016391
2e-05,10.448464,0.022618
2e-05,10.452465,0.020202
-5e-05,10.456465,-0.053402
-2e-05,10.460465,-0.017508
4e-05,10.464465,0.035818
-4e-05,10.468465,-0.040508
4e-05,10.472465,0.039091
-9e-05,10.476466,-0.092372
-5e-05,10.480466,-0.048722
-0.00012,10.484466,-0.116773
-5e-05,10.488466,-0.051202
-0.00011,10.492466,-0.109643
-0.0001,10.496467,-0.102008
-0.0001,10.500467,-0.102036
-9e-05,10.504467,-0.087625
-0.00014,10.508467,-0.143911
-7e-05,10.512467,-0.065359
-0.00021,10.516467,-0.205409
-0.00011,10.520468,-0.110255
-0.0002,10.524468,-0.203151
-0.00016,10.528468,-0.161221
-0.00018,10.532468,-0.177728
-0.00013,10.536468,-0.128246
-0.00022,10.540468,-0.220809
-0.0002,10.544469,-0.201689
-0.00018,10.548469,-0.180842
-0.00022,10.552469,-0.217071
-0.00021,10.556469,-0.212943
-0.00029,10.560469,-0.292865
-0.00027,10.56447,-0.267406
-0.00023,10.56847,-0.230021
-0.00035,10.57247,-0.345929
-0.00026,10.57647,-0.260805
-0.0003,10.58047,-0.298164
-0.00034,10.58447,-0.33978
-0.00029,10.588471,-0.293497
-0.00029,10.592471,-0.293003
-0.00024,10.596471,-0.244012
-0.00033,10.600471,-0.329648
-0.00038,10.604471,-0.37599
-0.00029,10.608471,-0.28639
-0.00034,10.612472,-0.337572
-0.0003,10.616472,-0.296586
-0.00036,10.620472,-0.356489
-0.00028,10.624472,-0.284809
-0.00031,10.628472,-0.314934
-0.00034,10.632473,-0.342194
-0.00031,10.636473,-0.312148
-0.00037,10.640473,-0.365537
-0.00026,10.644473,-0.259541
-0.00036,10.648473,-0.355784
-0.00033,10.652473,-0.333493
-0.00038,10.656474,-0.379713
-0.0004,10.660474,-0.401355
-0.00045,10.664474,-0.452062
-0.00042,10.668474,-0.418786
-0.00042,10.672474,-0.422329
-0.00042,10.676475,-0.421898
-0.00042,10.680475,-0.421347
-0.00042,10.684475,-0.424275
-0.00042,10.688475,-0.418551
-0.0004,10.692475,-0.397836
-0.0004,10.696475,-0.403627
-0.00041,10.700476,-0.414606
-0.00039,10.704476,-0.393661
-0.0004,10.708476,-0.401524
-0.00042,10.712476,-0.421597
-0.00038,10.716476,-0.376813
-0.0004,10.720476,-0.395701
-0.00032,10.724477,-0.318368
-0.00044,10.728477,-0.437201
-0.00045,10.732477,-0.449855
-0.00037,10.736477,-0.369895
-0.00039,10.740477,-0.388971
-0.00041,10.744478,-0.408788
-0.00039,10.748478,-0.386201
-0.00036,10.752478,-0.362933
-0.00039,10.756478,-0.389488
-0.00038,10.760478,-0.379049
-0.00043,10.764478,-0.426178
-0.00037,10.768479,-0.369674
-0.00034,10.772479,-0.336403
-0.00029,10.776479,-0.29469
-0.00037,10.780479,-0.371959
-0.00031,10.784479,-0.31428
-0.00032,10.788479,-0.324341
-0.00029,10.79248,-0.292322
-0.00039,10.79648,-0.3936
-0.00035,10.80048,-0.353285
-0.00037,10.80448,-0.368514
-0.00028,10.80848,-0.278723
-0.00027,10.812481,-0.26764
-0.00032,10.816481,-0.321988
-0.00031,10.820481,-0.306635
-0.00025,10.824481,-0.251761
-0.00023,10.828481,-0.227583
-0.00024,10.832481,-0.237555
-0.00024,10.836482,-0.24202
-0.00024,10.840482,-0.237378
-0.00025,10.844482,-0.249854
-0.00024,10.848482,-0.244785
-0.00019,10.852482,-0.189721
-0.00028,10.856483,-0.282684
-0.00015,10.860483,-0.153536
-0.00013,10.864483,-0.134688
-0.00026,10.868483,-0.263871
-0.00026,10.872483,-0.255336
-0.00014,10.876483,-0.139382
-0.00015,10.880484,-0.154433
-0.00011,10.884484,-0.107169
-0.00014,10.888484,-0.144421
-0.0,10.892484,-0.00169
-0.0001,10.896484,-0.101836
-0.00022,10.900484,-0.224522
-7e-05,10.904485,-0.070186
-8e-05,10.908485,-0.084091
-7e-05,10.912485,-0.074934
-0.00011,10.916485,-0.107504
-0.00015,10.920485,-0.148374
-0.00011,10.924486,-0.114058
-0.00013,10.928486,-0.129416
-0.00014,10.932486,-0.135121
-3e-05,10.936486,-0.031467
-8e-05,10.940486,-0.077306
-5e-05,10.944486,-0.05489
-1e-05,10.948487,-0.014291
0.00011,10.952487,0.107233
-5e-05,10.956487,-0.052271
0.0,10.960487,0.000841
4e-05,10.964487,0.038586
-6e-05,10.968487,-0.061588
0.0001,10.972488,0.104244
8e-05,10.976488,0.081152
4e-05,10.980488,0.036017
1e-05,10.984488,0.009272
4e-05,10.988488,0.040932
1e-05,10.992489,0.012962
6e-05,10.996489,0.057427
8e-05,11.000489,0.076389
0.00015,11.004489,0.145263
0.00022,11.008489,0.220132
0.00018,11.012489,0.184841
0.00021,11.01649,0.213897
0.00018,11.02049,0.178085
0.00014,11.02449,0.136997
0.00014,11.02849,0.143993
0.00022,11.03249,0.224831
0.00013,11.036491,0.133017
0.00024,11.040491,0.240549
0.00018,11.044491,0.178023
0.0002,11.048491,0.196957
0.00022,11.052491,0.224433
0.00023,11.056491,0.232736
0.00027,11.060492,0.274711
0.00026,11.064492,0.26451
0.00026,11.068492,0.260323
0.00028,11.072492,0.277715
0.0003,11.076492,0.304565
0.00025,11.080492,0.250359
0.0002,11.084493,0.202798
0.00033,11.088493,0.334775
0.00046,11.092493,0.455962
0.00107,11.096493,1.069205
0.00152,11.100493,1.51872
0.00081,11.104494,0.809918
0.00036,11.108494,0.355495
0.00029,11.112494,0.29303
0.00033,11.116494,0.332563
0.0003,11.120494,0.30493
0.00034,11.124494,0.337213
0.00037,11.128495,0.368542
0.00044,11.132495,0.443095
0.00042,11.136495,0.423592
0.00041,11.140495,0.406352
0.00028,11.144495,0.281062
0.00045,11.148495,0.446897
0.00029,11.152496,0.288586
0.00042,11.156496,0.419737
0.00033,11.160496,0.333402
0.00033,11.164496,0.334028
0.00046,11.168496,0.462139
0.00037,11.172497,0.374549
0.00044,11.176497,0.443092
0.00043,11.180497,0.434223
0.00041,11.184497,0.409645
0.00047,11.188497,0.474784
0.00036,11.192497,0.362628
0.00038,11.196498,0.377222
0.00034,11.200498,0.337836
0.00054,11.204498,0.537143
0.0004,11.208498,0.400178
0.00038,11.212498,0.382507
0.00043,11.216499,0.428263
0.00039,11.220499,0.393206
0.00039,11.224499,0.390343
0.00046,11.228499,0.462986
0.0004,11.232499,0.404638
0.00034,11.236499,0.335971
0.00031,11.2405,0.309336
0.00046,11.2445,0.462759
0.00029,11.2485,0.293886
0.00033,11.2525,0.326946
0.00032,11.2565,0.318292
0.00036,11.2605,0.358979
0.00046,11.264501,0.460221
0.00034,11.268501,0.338433
0.0003,11.272501,0.304291
0.00037,11.276501,0.369455
0.00038,11.280501,0.380706
0.00041,11.284502,0.41491
0.00026,11.288502,0.263983
0.00042,11.292502,0.416269
0.00033,11.296502,0.328905
0.00035,11.300502,0.348796
0.00031,11.304502,0.314352
0.00036,11.308503,0.361203
0.00038,11.312503,0.376421
0.00029,11.316503,0.28783
0.00031,11.320503,0.30846
0.00035,11.324503,0.34656
0.00038,11.328503,0.38068
0.00035,11.332504,0.351512
0.00032,11.336504,0.318899
0.00029,11.340504,0.287869
0.00027,11.344504,0.273081
0.0002,11.348504,0.203595
0.00031,11.352505,0.314128
0.00016,11.356505,0.16331
0.00015,11.360505,0.148044
0.00018,11.364505,0.184657
0.0001,11.368505,0.095223
9e-05,11.372505,0.085403
0.00014,11.376506,0.14377
0.00016,11.380506,0.160657
0.0002,11.384506,0.200048
0.00021,11.388506,0.205017
0.00013,11.392506,0.13142
9e-05,11.396507,0.086119
0.0002,11.400507,0.197538
0.0001,11.404507,0.098541
0.00013,11.408507,0.125122
-1e-05,11.412507,-0.014871
4e-05,11.416507,0.040706
0.00014,11.420508,0.140932
3e-05,11.424508,0.027888
8e-05,11.428508,0.07771
-2e-05,11.432508,-0.021128
-0.0,11.436508,-0.000208
-1e-05,11.440508,-0.014694
0.0001,11.444509,0.096799
2e-05,11.448509,0.017424
0.0,11.452509,0.001928
2e-05,11.456509,0.02303
0.0,11.460509,0.001502
-1e-05,11.46451,-0.006833
-2e-05,11.46851,-0.017169
-0.00012,11.47251,-0.115535
2e-05,11.47651,0.017799
1e-05,11.48051,0.009822
-9e-05,11.48451,-0.092739
-1e-05,11.488511,-0.008296
-8e-05,11.492511,-0.080858
-0.0001,11.496511,-0.102204
-0.00015,11.500511,-0.151144
-0.00017,11.504511,-0.172771
-8e-05,11.508511,-0.084711
-0.00012,11.512512,-0.121517
-0.00018,11.516512,-0.175778
-0.00012,11.520512,-0.122017
-0.00019,11.524512,-0.1916
-0.00019,11.528512,-0.187118
-0.00027,11.532513,-0.271419
-0.00031,11.536513,-0.309999
-0.00022,11.540513,-0.216966
-0.00018,11.544513,-0.1756
-0.00022,11.548513,-0.220976
-0.00018,11.552513,-0.182333
-0.00022,11.556514,-0.222864
-0.00027,11.560514,-0.2713
-0.00024,11.564514,-0.242288
-0.00032,11.568514,-0.315611
-0.00034,11.572514,-0.343398
-0.00027,11.576515,-0.265705
-0.0003,11.580515,-0.299723
-0.00027,11.584515,-0.272939
-0.00026,11.588515,-0.260581
-0.00033,11.592515,-0.327216
-0.00025,11.596515,-0.247818
-0.00035,11.600516,-0.347815
-0.00032,11.604516,-0.317137
-0.00032,11.608516,-0.319808
-0.00039,11.612516,-0.391615
-0.00028,11.616516,-0.282505
-0.00043,11.620516,-0.427906
-0.0003,11.624517,-0.296404
-0.00026,11.628517,-0.258855
-0.00037,11.632517,-0.371609
-0.00038,11.636517,-0.375499
-0.0004,11.640517,-0.400118
-0.00032,11.644518,-0.323997
-0.00029,11.648518,-0.285457
-0.00035,11.652518,-0.352618
-0.00044,11.656518,-0.442262
-0.00038,11.660518,-0.379004
-0.00041,11.664518,-0.407346
-0.00036,11.668519,-0.364992
-0.0003,11.672519,-0.296534
-0.00036,11.676519,-0.363853
-0.00039,11.680519,-0.387441
-0.00048,11.684519,-0.480436
-0.00031,11.688519,-0.310201
-0.00041,11.69252,-0.406019
-0.0004,11.69652,-0.396927
-0.00035,11.70052,-0.347063
-0.00039,11.70452,-0.391672
-0.0004,11.70852,-0.397117
-0.00044,11.712521,-0.440684
-0.00038,11.716521,-0.38378
-0.00037,11.720521,-0.36626
-0.00042,11.724521,-0.416682
-0.00041,11.728521,-0.406506
-0.00048,11.732521,-0.481985
-0.00037,11.736522,-0.371888
-0.00039,11.740522,-0.391728
-0.00047,11.744522,-0.465239
-0.00026,11.748522,-0.256919
-0.00035,11.752522,-0.354634
-0.00033,11.756523,-0.328378
-0.00042,11.760523,-0.424032
-0.00051,11.764523,-0.505778
-0.00049,11.768523,-0.489206
-0.00037,11.772523,-0.367949
-0.00032,11.776523,-0.324993
-0.00031,11.780524,-0.314997
-0.00038,11.784524,-0.382333
-0.00035,11.788524,-0.347146
-0.00032,11.792524,-0.322837
-0.00038,11.796524,-0.384582
-0.00023,11.800524,-0.22531
-0.0003,11.804525,-0.296108
-0.00029,11.808525,-0.28871
-0.00026,11.812525,-0.256949
-0.00021,11.816525,-0.207976
-0.00025,11.820525,-0.250501
-0.00021,11.824526,-0.208333
-0.0003,11.828526,-0.296715
-0.00032,11.832526,-0.322633
-0.00027,11.836526,-0.272829
-0.00028,11.840526,-0.276635
-0.0003,11.844526,-0.298661
-0.0002,11.848527,-0.202971
-0.00032,11.852527,-0.319097
-0.0002,11.856527,-0.202609
-0.00028,11.860527,-0.278705
-0.00024,11.864527,-0.242957
-0.00021,11.868527,-0.20651
-0.0002,11.872528,-0.202467
-0.00019,11.876528,-0.192846
-0.00018,11.880528,-0.176952
-0.0001,11.884528,-0.098323
-0.00023,11.888528,-0.232401
-0.00013,11.892529,-0.129985
-0.0001,11.896529,-0.104261
-0.00017,11.900529,-0.170191
-0.0002,11.904529,-0.198943
-0.0001,11.908529,-0.102514
-0.00013,11.912529,-0.129371
-0.00014,11.91653,-0.141846
-4e-05,11.92053,-0.036203
-5e-05,11.92453,-0.052661
1e-05,11.92853,0.007435
-7e-05,11.93253,-0.072837
-8e-05,11.936531,-0.08093
-5e-05,11.940531,-0.047954
-7e-05,11.944531,-0.065623
2e-05,11.948531,0.016797
-6e-05,11.952531,-0.057173
0.00014,11.956531,0.136799
-1e-05,11.960532,-0.014042
1e-05,11.964532,0.007752
0.00017,11.968532,0.174235
-1e-05,11.972532,-0.008788
1e-05,11.976532,0.014282
2e-05,11.980532,0.021385
0.0001,11.984533,0.097077
0.00015,11.988533,0.151686
0.00015,11.992533,0.149866
0.0001,11.996533,0.101228
9e-05,12.000533,0.09225
9e-05,12.004534,0.092578
0.00015,12.008534,0.148658
0.00014,12.012534,0.136051
0.00012,12.016534,0.118681
0.00024,12.020534,0.239761
0.00015,12.024534,0.154593
0.00016,12.028535,0.158587
0.00011,12.032535,0.111139
0.00022,12.036535,0.221559
0.00015,12.040535,0.151114
0.00022,12.044535,0.216885
0.00027,12.048535,0.273378
0.00014,12.052536,0.140262
0.00022,12.056536,0.21668
0.00022,12.060536,0.223326
0.00032,12.064536,0.320541
0.00026,12.068536,0.257363
0.00033,12.072537,0.333164
0.00031,12.076537,0.311957
0.00029,12.080537,0.294111
0.00024,12.084537,0.243301
0.00037,12.088537,0.370888
0.00036,12.092537,0.364822
0.00104,12.096538,1.042537
0.00155,12.100538,1.551813
0.00091,12.104538,0.907851
0.00043,12.108538,0.425789
0.00028,12.112538,0.278184
0.00032,12.116539,0.321696
0.00031,12.120539,0.314894
0.00033,12.124539,0.327568
0.00026,12.128539,0.256942
0.00046,12.132539,0.457485
0.00037,12.136539,0.367797
0.00039,12.14054,0.38667
0.00049,12.14454,0.489735
0.00038,12.14854,0.38466
0.00039,12.15254,0.388421
0.00034,12.15654,0.337319
0.00039,12.16054,0.393208
0.00034,12.164541,0.343592
0.00039,12.168541,0.387677
0.00046,12.172541,0.463408
0.00039,12.176541,0.391284
0.00041,12.180541,0.414639
0.0003,12.184542,0.297091
0.00037,12.188542,0.365377
0.00037,12.192542,0.365911
0.0004,12.196542,0.401937
0.00035,12.200542,0.350101
0.00047,12.204542,0.467156
0.00036,12.208543,0.356571
0.00037,12.212543,0.373313
0.00037,12.216543,0.365426
0.00037,12.220543,0.373319
0.0004,12.224543,0.400473
0.00043,12.228543,0.425188
0.00033,12.232544,0.328502
0.00044,12.236544,0.4357
0.00038,12.240544,0.383624
0.00041,12.244544,0.407845
0.00028,12.248544,0.280463
0.00041,12.252545,0.408744
0.00033,12.256545,0.334376
0.00042,12.260545,0.419605
0.00029,12.264545,0.291385
0.00027,12.268545,0.271889
0.0004,12.272545,0.404416
0.0004,12.276546,0.398918
0.00037,12.280546,0.37214
0.00034,12.284546,0.343587
0.00032,12.288546,0.318966
0.00027,12.292546,0.268811
0.00034,12.296547,0.341668
0.00031,12.300547,0.313516
0.00036,12.304547,0.356416
0.00034,12.308547,0.339714
0.00027,12.312547,0.272977
0.00026,12.316547,0.264559
0.00031,12.320548,0.310875
0.0002,12.324548,0.19661
0.00033,12.328548,0.331099
0.00027,12.332548,0.274162
0.00025,12.336548,0.248373
0.00022,12.340548,0.216706
0.00018,12.344549,0.183224
0.00029,12.348549,0.292464
0.00017,12.352549,0.170335
0.00027,12.356549,0.272728
0.00018,12.360549,0.179705
0.00026,12.36455,0.255801
0.00015,12.36855,0.150129
0.00012,12.37255,0.117393
0.00023,12.37655,0.225164
0.00015,12.38055,0.146169
0.0001,12.38455,0.095777
0.00019,12.388551,0.188749
0.00019,12.392551,0.194799
0.00016,12.396551,0.159287
0.00019,12.400551,0.189411
0.00019,12.404551,0.193848
0.0001,12.408551,0.096794
0.00021,12.412552,0.214109
2e-05,12.416552,0.023348
7e-05,12.420552,0.06869
3e-05,12.424552,0.031338
7e-05,12.428552,0.07265
-2e-05,12.432553,-0.020155
-2e-05,12.436553,-0.018956
-3e-05,12.440553,-0.03157
2e-05,12.444553,0.017422
4e-05,12.448553,0.041063
2e-05,12.452553,0.019242
-5e-05,12.456554,-0.051553
1e-05,12.460554,0.014289
-2e-05,12.464554,-0.023651
-0.0001,12.468554,-0.10297
-5e-05,12.472554,-0.046588
-0.00014,12.476555,-0.136846
-0.00011,12.480555,-0.112436
-0.00014,12.484555,-0.137713
-7e-05,12.488555,-0.070939
-3e-05,12.492555,-0.03438
-9e-05,12.496555,-0.09285
-0.00013,12.500556,-0.132473
-0.00017,12.504556,-0.167123
-0.00017,12.508556,-0.166771
-0.00017,12.512556,-0.166767
-0.00017,12.516556,-0.168106
-0.00015,12.520556,-0.152743
-0.00021,12.524557,-0.208036
-0.00011,12.528557,-0.113861
-0.00017,12.532557,-0.174546
-0.00025,12.536557,-0.250269
-0.00019,12.540557,-0.191371
-0.00025,12.544558,-0.245526
-0.00021,12.548558,-0.210675
-0.00018,12.552558,-0.178033
-0.00034,12.556558,-0.340932
-0.00023,12.560558,-0.227811
-0.00028,12.564558,-0.278931
-0.0003,12.568559,-0.304136
-0.00028,12.572559,-0.284564
-0.00027,12.576559,-0.272058
-0.00025,12.580559,-0.249966
-0.00025,12.584559,-0.254745
-0.0003,12.588559,-0.296853
-0.00029,12.59256,-0.290024
-0.00031,12.59656,-0.314573
-0.00035,12.60056,-0.34802
-0.00037,12.60456,-0.368837
-0.00038,12.60856,-0.382363
-0.00035,12.612561,-0.346917
-0.00034,12.616561,-0.344225
-0.00031,12.620561,-0.312441
-0.0004,12.624561,-0.401098
-0.00045,12.628561,-0.447896
-0.00037,12.632561,-0.371079
-0.00033,12.636562,-0.328047
-0.00038,12.640562,-0.384372
-0.0003,12.644562,-0.296683
-0.00046,12.648562,-0.455357
-0.00039,12.652562,-0.385867
-0.00036,12.656563,-0.358415
-0.00053,12.660563,-0.525996
-0.00041,12.664563,-0.411664
-0.00043,12.668563,-0.428225
-0.00034,12.672563,-0.338818
-0.00028,12.676563,-0.283599
-0.00033,12.680564,-0.328608
-0.00031,12.684564,-0.310516
-0.00035,12.688564,-0.351667
-0.00046,12.692564,-0.462465
-0.00042,12.696564,-0.424802
-0.00029,12.700564,-0.291264
-0.00048,12.704565,-0.482652
-0.00036,12.708565,-0.364189
-0.00037,12.712565,-0.370311
-0.00036,12.716565,-0.357464
-0.00038,12.720565,-0.377761
-0.00044,12.724566,-0.442647
-0.00034,12.728566,-0.3351
-0.00047,12.732566,-0.469989
-0.00038,12.736566,-0.376232
-0.00041,12.740566,-0.412248
-0.00035,12.744566,-0.348118
-0.00031,12.748567,-0.311423
-0.00037,12.752567,-0.372354
-0.00035,12.756567,-0.345294
-0.00041,12.760567,-0.409442
-0.00037,12.764567,-0.371136
-0.00042,12.768567,-0.418115
-0.00035,12.772568,-0.347842
-0.0003,12.776568,-0.295733
-0.00036,12.780568,-0.355904
-0.00038,12.784568,-0.380661
-0.00038,12.788568,-0.383517
-0.00038,12.792569,-0.375439
-0.00033,12.796569,-0.329368
-0.00029,12.800569,-0.293019
-0.00028,12.804569,-0.275729
-0.00035,12.808569,-0.351215
-0.00024,12.812569,-0.241236
-0.00019,12.81657,-0.194089
-0.00042,12.82057,-0.420824
-0.00031,12.82457,-0.313898
-0.00028,12.82857,-0.279296
-0.0003,12.83257,-0.302252
-0.00033,12.836571,-0.331282
-0.00027,12.840571,-0.268086
-0.00028,12.844571,-0.282181
-0.00025,12.848571,-0.24896
-0.00021,12.852571,-0.208599
-0.00025,12.856571,-0.253701
-0.00023,12.860572,-0.233499
-3e-05,12.864572,-0.02651
-0.00015,12.868572,-0.148803
-0.00012,12.872572,-0.121548
-0.00018,12.876572,-0.181818
-0.00022,12.880572,-0.22497
-0.00018,12.884573,-0.183766
-0.00015,12.888573,-0.153249
-0.00013,12.892573,-0.128616
-4e-05,12.896573,-0.044521
-0.00015,12.900573,-0.152533
-0.00015,12.904574,-0.15452
-0.00016,12.908574,-0.158832
-7e-05,12.912574,-0.069087
-0.00014,12.916574,-0.137959
-9e-05,12.920574,-0.087174
-4e-05,12.924574,-0.038944
-0.00014,12.928575,-0.140769
-3e-05,12.932575,-0.029384
-5e-05,12.936575,-0.053705
2e-05,12.940575,0.019588
4e-05,12.944575,0.035515
-8e-05,12.948575,-0.08397
-2e-05,12.952576,-0.02308
7e-05,12.956576,0.071545
8e-05,12.960576,0.075508
3e-05,12.964576,0.031232
-1e-05,12.968576,-0.012896
7e-05,12.972577,0.06801
8e-05,12.976577,0.081396
0.0001,12.980577,0.100795
-5e-05,12.984577,-0.047523
0.00015,12.988577,0.147802
0.00014,12.992577,0.144182
3e-05,12.996578,0.027652
0.00014,13.000578,0.135311
0.00013,13.004578,0.131551
0.00019,13.008578,0.189177
0.00024,13.012578,0.240003
0.00016,13.016579,0.160975
0.00021,13.020579,0.207785
0.00025,13.024579,0.248692
0.00025,13.028579,0.248912
0.00016,13.032579,0.159814
0.00018,13.036579,0.184934
0.00017,13.04058,0.165633
0.00025,13.04458,0.251686
0.00016,13.04858,0.162428
0.00024,13.05258,0.243177
0.00021,13.05658,0.209021
0.00014,13.06058,0.140503
0.00022,13.064581,0.217958
0.00027,13.068581,0.266561
0.00029,13.072581,0.286461
0.00024,13.076581,0.243711
0.00026,13.080581,0.260913
0.00028,13.084582,0.2802
0.00028,13.088582,0.282232
0.00042,13.092582,0.419944
0.00101,13.096582,1.007751
0.00156,13.100582,1.56067
0.00085,13.104582,0.851935
0.00038,13.108583,0.382542
0.00041,13.112583,0.408622
0.00035,13.116583,0.354102
0.00036,13.120583,0.35977
0.0003,13.124583,0.298389
0.00031,13.128583,0.313387
0.00039,13.132584,0.390981
0.00038,13.136584,0.377616
0.0003,13.140584,0.30267
0.00038,13.144584,0.380532
0.00043,13.148584,0.427438
0.00037,13.152585,0.368806
0.0004,13.156585,0.399406
0.00041,13.160585,0.412151
0.00037,13.164585,0.365887
0.00036,13.168585,0.360804
0.00039,13.172585,0.389198
0.00043,13.176586,0.432452
0.00035,13.180586,0.345828
0.00032,13.184586,0.32402
0.00037,13.188586,0.370183
0.00043,13.192586,0.429689
0.00045,13.196587,0.450618
0.00038,13.200587,0.376855
0.00039,13.204587,0.385756
0.00031,13.208587,0.311816
0.00035,13.212587,0.347932
0.00038,13.216587,0.383581
0.00036,13.220588,0.356256
0.00038,13.224588,0.376851
0.00043,13.228588,0.427584
0.00038,13.232588,0.377766
0.00043,13.236588,0.428486
0.00034,13.240588,0.339378
0.00039,13.244589,0.392734
0.00044,13.248589,0.436835
0.00042,13.252589,0.417357
0.00039,13.256589,0.389465
0.00042,13.260589,0.418714
0.00035,13.26459,0.353626
0.00035,13.26859,0.351404
0.0004,13.27259,0.397241
0.00033,13.27659,0.328931
0.00033,13.28059,0.328417
0.00034,13.28459,0.338979
0.00031,13.288591,0.309308
0.0003,13.292591,0.302268
0.00033,13.296591,0.332656
0.00033,13.300591,0.327542
0.00037,13.304591,0.369591
0.0003,13.308591,0.303094
0.00024,13.312592,0.24351
0.00023,13.316592,0.227041
0.00035,13.320592,0.347711
0.00022,13.324592,0.221206
0.00025,13.328592,0.249235
0.00022,13.332593,0.216343
0.00031,13.336593,0.312214
0.00026,13.340593,0.25667
0.0002,13.344593,0.204882
0.00025,13.348593,0.254826
0.00023,13.352593,0.229903
0.00025,13.356594,0.252445
0.0002,13.360594,0.195235
0.00027,13.364594,0.265422
0.00019,13.368594,0.192221
0.0002,13.372594,0.20209
0.00021,13.376595,0.206694
0.00012,13.380595,0.117841
0.00013,13.384595,0.132916
0.00015,13.388595,0.149577
0.0001,13.392595,0.100521
0.00016,13.396595,0.164015
0.0001,13.400596,0.097885
7e-05,13.404596,0.074056
0.00014,13.408596,0.144507
0.0001,13.412596,0.103421
0.0001,13.416596,0.096191
0.00015,13.420596,0.146585
4e-05,13.424597,0.035273
6e-05,13.428597,0.061006
-3e-05,13.432597,-0.0252
3e-05,13.436597,0.025924
-4e-05,13.440597,-0.038153
-5e-05,13.444598,-0.053739
3e-05,13.448598,0.028368
-2e-05,13.452598,-0.019643
0.0,13.456598,0.000257
0.0,13.460598,0.000343
-6e-05,13.464598,-0.056792
-1e-05,13.468599,-0.012797
-3e-05,13.472599,-0.029102
-0.00015,13.476599,-0.145186
-8e-05,13.480599,-0.076636
-7e-05,13.484599,-0.068374
-8e-05,13.488599,-0.084353
-0.00018,13.4926,-0.177841
7e-05,13.4966,0.072271
-0.00013,13.5006,-0.125724
-0.00017,13.5046,-0.170653
-0.00018,13.5086,-0.181728
-0.00017,13.512601,-0.172538
-0.00013,13.516601,-0.126051
-0.00022,13.520601,-0.221218
-0.0002,13.524601,-0.204705
-0.00023,13.528601,-0.22801
-0.00013,13.532601,-0.13403
-0.0002,13.536602,-0.202433
-0.00028,13.540602,-0.276227
-0.00014,13.544602,-0.144344
-0.00026,13.548602,-0.263375
-0.00022,13.552602,-0.216358
-0.00031,13.556603,-0.307169
-0.00025,13.560603,-0.251653
-0.00017,13.564603,-0.172531
-0.00024,13.568603,-0.235657
-0.00031,13.572603,-0.309682
-0.00033,13.576603,-0.327417
-0.00029,13.580604,-0.292608
-0.00031,13.584604,-0.309164
-0.00029,13.588604,-0.294191
-0.00031,13.592604,-0.307644
-0.00031,13.596604,-0.305348
-0.0004,13.600604,-0.395112
-0.00034,13.604605,-0.340941
-0.0004,13.608605,-0.39554
-0.0003,13.612605,-0.297387
-0.00029,13.616605,-0.291157
-0.00037,13.620605,-0.370528
-0.0004,13.624606,-0.402945
-0.00042,13.628606,-0.424818
-0.00031,13.632606,-0.30788
-0.00035,13.636606,-0.353913
-0.00039,13.640606,-0.385307
-0.00037,13.644606,-0.372624
-0.00041,13.648607,-0.413974
-0.00038,13.652607,-0.379563
-0.00028,13.656607,-0.280221
-0.00029,13.660607,-0.293916
-0.00041,13.664607,-0.407437
-0.00041,13.668607,-0.408618
-0.00034,13.672608,-0.341999
-0.00034,13.676608,-0.340837
-0.00042,13.680608,-0.41995
-0.00032,13.684608,-0.324144
-0.0004,13.688608,-0.398112
-0.00046,13.692609,-0.456864
-0.0004,13.696609,-0.404244
-0.00057,13.700609,-0.567519
-0.0004,13.704609,-0.397852
-0.00036,13.708609,-0.362787
-0.0004,13.712609,-0.404655
-0.00033,13.71661,-0.326393
-0.0004,13.72061,-0.395768
-0.0004,13.72461,-0.397195
-0.00042,13.72861,-0.422745
-0.00034,13.73261,-0.33972
-0.00035,13.736611,-0.352011
-0.00034,13.740611,-0.344783
-0.00042,13.744611,-0.422798
-0.00033,13.748611,-0.331734
-0.00039,13.752611,-0.39004
-0.00041,13.756611,-0.407564
-0.00039,13.760612,-0.388244
-0.00032,13.764612,-0.322538
-0.00035,13.768612,-0.345073
-0.00036,13.772612,-0.358322
-0.00033,13.776612,-0.332406
-0.00026,13.780612,-0.256267
-0.00029,13.784613,-0.294429
-0.0004,13.788613,-0.401544
-0.00034,13.792613,-0.337153
-0.00031,13.796613,-0.312763
-0.00041,13.800613,-0.41441
-0.00031,13.804614,-0.314886
-0.00032,13.808614,-0.321664
-0.00033,13.812614,-0.33099
-0.00024,13.816614,-0.24321
-0.00028,13.820614,-0.283126
-0.00027,13.824614,-0.265985
-0.00022,13.828615,-0.224685
-0.00027,13.832615,-0.27147
-0.00032,13.836615,-0.317136
-0.00028,13.840615,-0.280317
-0.00017,13.844615,-0.174542
-0.00026,13.848615,-0.262411
-0.00031,13.852616,-0.306724
-0.00018,13.856616,-0.181231
-0.00017,13.860616,-0.167635
-8e-05,13.864616,-0.080474
-0.00019,13.868616,-0.190317
-0.00019,13.872617,-0.193964
-0.00015,13.876617,-0.14774
-0.00018,13.880617,-0.183324
-0.00022,13.884617,-0.215465
-0.00013,13.888617,-0.132708
-0.0002,13.892617,-0.200083
-0.00015,13.896618,-0.147936
-9e-05,13.900618,-0.085503
-9e-05,13.904618,-0.086732
-6e-05,13.908618,-0.063967
-0.00011,13.912618,-0.107908
-0.00013,13.916619,-0.125789
-7e-05,13.920619,-0.072452
-4e-05,13.924619,-0.041116
-0.00013,13.928619,-0.130933
-1e-05,13.932619,-0.00909
0.0,13.936619,0.002683
4e-05,13.94062,0.044874
2e-05,13.94462,0.020184
-2e-05,13.94862,-0.020222
-0.00013,13.95262,-0.13193
-1e-05,13.95662,-0.005403
-3e-05,13.96062,-0.0346
3e-05,13.964621,0.030348
2e-05,13.968621,0.018125
2e-05,13.972621,0.016559
0.0001,13.976621,0.095336
0.00012,13.980621,0.124218
6e-05,13.984622,0.057223
-2e-05,13.988622,-0.024655
7e-05,13.992622,0.065137
0.00018,13.996622,0.177834
0.00016,14.000622,0.159009
0.00011,14.004622,0.108804
9e-05,14.008623,0.085457
0.0002,14.012623,0.195379
0.00017,14.016623,0.165136
0.00014,14.020623,0.141261
0.00018,14.024623,0.175577
0.00028,14.028623,0.278741
0.00024,14.032624,0.24391
0.00025,14.036624,0.254061
0.00014,14.040624,0.143233
0.00018,14.044624,0.183699
0.00028,14.048624,0.284626
0.00025,14.052625,0.245418
0.00024,14.056625,0.236605
0.00028,14.060625,0.275267
0.00022,14.064625,0.218109
0.00021,14.068625,0.2061
0.00026,14.072625,0.261393
0.00025,14.076626,0.252661
0.00033,14.080626,0.333027
0.0002,14.084626,0.201391
0.0003,14.088626,0.297566
0.00048,14.092626,0.476003
0.00115,14.096627,1.147848
0.00152,14.100627,1.518202
0.00075,14.104627,0.753967
0.00035,14.108627,0.350326
0.00028,14.112627,0.275569
0.00038,14.116627,0.375834
0.00027,14.120628,0.272024
0.00037,14.124628,0.37456
0.00034,14.128628,0.343763
0.00033,14.132628,0.327387
0.0003,14.136628,0.297686
0.00035,14.140628,0.349316
0.00022,14.144629,0.220109
0.00044,14.148629,0.44332
0.00031,14.152629,0.310632
0.00033,14.156629,0.325051
0.00042,14.160629,0.418841
0.00031,14.16463,0.314085
0.0004,14.16863,0.395789
0.00034,14.17263,0.343591
0.00031,14.17663,0.312371
0.00045,14.18063,0.453336
0.00034,14.18463,0.335312
0.00047,14.188631,0.470079
0.00049,14.192631,0.48513
0.00039,14.196631,0.386387
0.00038,14.200631,0.382141
0.00032,14.204631,0.32155
0.00041,14.208631,0.407141
0.00043,14.212632,0.431777
0.00046,14.216632,0.457384
0.00038,14.220632,0.383883
0.00035,14.224632,0.349097
0.0004,14.228632,0.401319
0.00036,14.232633,0.359691
0.00034,14.236633,0.341437
0.00041,14.240633,0.408649
0.00046,14.244633,0.461534
0.00035,14.248633,0.34898
0.00031,14.252633,0.312715
0.00039,14.256634,0.392756
0.0004,14.260634,0.397054
0.00038,14.264634,0.380818
0.00035,14.268634,0.35058
0.00039,14.272634,0.385902
0.00032,14.276635,0.320457
0.00035,14.280635,0.349524
0.00031,14.284635,0.314755
0.00038,14.288635,0.376818
0.00042,14.292635,0.423539
0.00036,14.296635,0.359436
0.00032,14.300636,0.32155
0.00026,14.304636,0.263406
0.00028,14.308636,0.276978
0.00024,14.312636,0.243559
0.00037,14.316636,0.37005
0.00032,14.320636,0.319902
0.00026,14.324637,0.261966
0.00029,14.328637,0.287149
0.0003,14.332637,0.304066
0.00023,14.336637,0.225913
0.00021,14.340637,0.210263
0.00028,14.344638,0.282501
0.00029,14.348638,0.292138
0.00024,14.352638,0.236142
0.00018,14.356638,0.177485
0.00023,14.360638,0.227541
0.0003,14.364638,0.296171
0.00018,14.368639,0.181246
0.00027,14.372639,0.270606
0.00021,14.376639,0.209584
0.00018,14.380639,0.178715
0.00032,14.384639,0.315934
0.0001,14.388639,0.098774
0.00016,14.39264,0.157417
0.0002,14.39664,0.197923
0.00018,14.40064,0.182022
0.00018,14.40464,0.183848
0.00017,14.40864,0.167185
7e-05,14.412641,0.073606
0.00016,14.416641,0.156076
7e-05,14.420641,0.069599
-2e-05,14.424641,-0.022278
9e-05,14.428641,0.08639
-0.0,14.432641,-0.002449
2e-05,14.436642,0.015956
9e-05,14.440642,0.093622
6e-05,14.444642,0.056309
1e-05,14.448642,0.010759
3e-05,14.452642,0.033318
-3e-05,14.456643,-0.0329
-8e-05,14.460643,-0.079968
-2e-05,14.464643,-0.017994
-0.0001,14.468643,-0.100483
-0.00016,14.472643,-0.156946
-3e-05,14.476643,-0.025826
-0.00015,14.480644,-0.152216
-0.00016,14.484644,-0.158929
-2e-05,14.488644,-0.024782
-0.0001,14.492644,-0.09645
-5e-05,14.496644,-0.047989
-0.00012,14.500644,-0.118242
-0.00012,14.504645,-0.122756
-9e-05,14.508645,-0.091992
-0.0001,14.512645,-0.102759
-0.00015,14.516645,-0.149671
-0.00013,14.520645,-0.133602
-0.00021,14.524646,-0.209474
-0.00021,14.528646,-0.211725
-0.00011,14.532646,-0.105356
-0.00015,14.536646,-0.152919
-0.00018,14.540646,-0.178612
-0.00027,14.544646,-0.268955
-0.00026,14.548647,-0.262417
-0.00018,14.552647,-0.17692
-0.00013,14.556647,-0.132692
-0.0002,14.560647,-0.201678
-0.00025,14.564647,-0.254159
-0.0002,14.568647,-0.201387
-0.00035,14.572648,-0.352479
-0.00024,14.576648,-0.244933
-0.00026,14.580648,-0.258546
-0.00027,14.584648,-0.266046
-0.0003,14.588648,-0.30178
-0.00032,14.592649,-0.320439
-0.00035,14.596649,-0.354913
-0.00035,14.600649,-0.345578
-0.00035,14.604649,-0.348733
-0.00028,14.608649,-0.276491
-0.00033,14.612649,-0.327449
-0.00028,14.61665,-0.27891
-0.00033,14.62065,-0.331847
-0.00046,14.62465,-0.45893
-0.00033,14.62865,-0.333605
-0.00039,14.63265,-0.386206
-0.00041,14.636651,-0.413935
-0.00035,14.640651,-0.354935
-0.00045,14.644651,-0.446519
-0.0005,14.648651,-0.50436
-0.00045,14.652651,-0.45386
-0.00041,14.656651,-0.405452
-0.0004,14.660652,-0.403303
-0.00041,14.664652,-0.408244
-0.00038,14.668652,-0.378254
-0.00043,14.672652,-0.43331
-0.00036,14.676652,-0.359798
-0.00042,14.680652,-0.42452
-0.0004,14.684653,-0.400335
-0.00042,14.688653,-0.422795
-0.00041,14.692653,-0.405161
-0.00039,14.696653,-0.389697
-0.00041,14.700653,-0.407835
-0.00035,14.704654,-0.348292
-0.0004,14.708654,-0.403286
-0.0004,14.712654,-0.398321
-0.00046,14.716654,-0.458647
-0.00033,14.720654,-0.326799
-0.00033,14.724654,-0.332366
-0.00037,14.728655,-0.36875
-0.00038,14.732655,-0.383456
-0.00046,14.736655,-0.464854
-0.00041,14.740655,-0.408122
-0.00037,14.744655,-0.3736
-0.00038,14.748655,-0.379597
-0.00039,14.752656,-0.392684
-0.00034,14.756656,-0.34106
-0.00036,14.760656,-0.360345
-0.00042,14.764656,-0.423539
-0.00028,14.768656,-0.282426
-0.00037,14.772657,-0.373252
-0.0004,14.776657,-0.395399
-0.00032,14.780657,-0.316662
-0.00033,14.784657,-0.333887
-0.00032,14.788657,-0.324324
-0.00034,14.792657,-0.339175
-0.00033,14.796658,-0.326331
-0.00027,14.800658,-0.26974
-0.00035,14.804658,-0.354743
-0.00035,14.808658,-0.351065
-0.00035,14.812658,-0.352285
-0.00034,14.816659,-0.339722
-0.00028,14.820659,-0.277375
-0.00036,14.824659,-0.356807
-0.00027,14.828659,-0.27315
-0.00028,14.832659,-0.279736
-0.00022,14.836659,-0.215364
-0.0002,14.84066,-0.201425
-0.00038,14.84466,-0.375166
-0.00023,14.84866,-0.228359
-0.00028,14.85266,-0.275101
-0.0002,14.85666,-0.20036
-0.00021,14.86066,-0.207577
-0.00026,14.864661,-0.258275
-0.00026,14.868661,-0.26431
-0.00012,14.872661,-0.12384
-0.00024,14.876661,-0.240588
-0.00011,14.880661,-0.10759
-0.00021,14.884662,-0.207458
-0.0001,14.888662,-0.102427
-0.00018,14.892662,-0.178915
-0.00015,14.896662,-0.152493
-0.00011,14.900662,-0.111447
-0.00012,14.904662,-0.120628
-6e-05,14.908663,-0.0582
-9e-05,14.912663,-0.088248
-4e-05,14.916663,-0.035781
-6e-05,14.920663,-0.06048
-0.00013,14.924663,-0.134385
-3e-05,14.928663,-0.026639
2e-05,14.932664,0.02051
-5e-05,14.936664,-0.054248
-0.0001,14.940664,-0.099305
1e-05,14.944664,0.00762
-7e-05,14.948664,-0.071562
2e-05,14.952665,0.01681
-4e-05,14.956665,-0.038071
-6e-05,14.960665,-0.056896
-7e-05,14.964665,-0.070897
7e-05,14.968665,0.066118
6e-05,14.972665,0.055015
7e-05,14.976666,0.074971
0.00016,14.980666,0.161498
0.0001,14.984666,0.101308
4e-05,14.988666,0.037585
8e-05,14.992666,0.080065
4e-05,14.996667,0.035513
0.00018,15.000667,0.180838
0.0002,15.004667,0.199749
0.00017,15.008667,0.173423
0.00013,15.012667,0.126795
0.00022,15.016667,0.221685
0.00025,15.020668,0.247644
0.00017,15.024668,0.16998
0.00023,15.028668,0.225202
0.00021,15.032668,0.212539
0.00022,15.036668,0.216599
0.00026,15.040668,0.262781
0.00027,15.044669,0.269245
0.00024,15.048669,0.243817
0.00025,15.052669,0.252562
0.00029,15.056669,0.293034
0.00032,15.060669,0.321078
0.00025,15.06467,0.250657
0.00024,15.06867,0.241678
0.00023,15.07267,0.232253
0.00021,15.07667,0.212821
0.00021,15.08067,0.205457
0.00028,15.08467,0.276777
0.00031,15.088671,0.30561
0.00053,15.092671,0.526328
0.00111,15.096671,1.107913
0.00136,15.100671,1.364618
0.00077,15.104671,0.766329
0.00048,15.108671,0.47934
0.00029,15.112672,0.286093
0.00029,15.116672,0.287378
0.00033,15.120672,0.33372
0.0004,15.124672,0.396023
0.00034,15.128672,0.335381
0.00041,15.132673,0.405289
0.00036,15.136673,0.358934
0.00029,15.140673,0.293837
0.00033,15.144673,0.332821
0.00043,15.148673,0.430594
0.00038,15.152673,0.375615
0.0003,15.156674,0.303367
0.00037,15.160674,0.368831
0.00029,15.164674,0.290923
0.00041,15.168674,0.40714
0.00043,15.172674,0.426719
0.00044,15.176675,0.443641
0.00038,15.180675,0.378174
0.00032,15.184675,0.321042
0.00038,15.188675,0.378669
0.00033,15.192675,0.33442
0.00042,15.196675,0.416982
0.00041,15.200676,0.405823
0.00036,15.204676,0.359155
0.00044,15.208676,0.444398
0.00046,15.212676,0.461857
0.00044,15.216676,0.437454
0.00048,15.220676,0.484964
0.00034,15.224677,0.341481
0.00042,15.228677,0.41955
0.00036,15.232677,0.362224
0.00039,15.236677,0.388553
0.00034,15.240677,0.342431
0.00043,15.244678,0.42996
0.00041,15.248678,0.4115
0.00038,15.252678,0.37754
0.00036,15.256678,0.360917
0.00043,15.260678,0.43336
0.0004,15.264678,0.403572
0.00035,15.268679,0.347844
0.00032,15.272679,0.31896
0.00042,15.276679,0.416759
0.00037,15.280679,0.374638
0.00039,15.284679,0.389808
0.00032,15.288679,0.324175
0.00028,15.29268,0.276517
0.0003,15.29668,0.303806
0.0004,15.30068,0.400276
0.00029,15.30468,0.285598
0.00036,15.30868,0.358902
0.00034,15.312681,0.339134
0.00038,15.316681,0.38303
0.00031,15.320681,0.309073
0.00035,15.324681,0.353312
0.0002,15.328681,0.200861
0.0003,15.332681,0.302207
0.00016,15.336682,0.164332
0.00025,15.340682,0.252991
0.00028,15.344682,0.284048
0.00029,15.348682,0.291237
0.00014,15.352682,0.136002
0.00017,15.356683,0.168117
0.00016,15.360683,0.155233
0.00016,15.364683,0.159419
0.00024,15.368683,0.242867
0.00014,15.372683,0.139514
0.00023,15.376683,0.230156
0.00018,15.380684,0.181285
0.00019,15.384684,0.191913
0.00014,15.388684,0.142696
0.00013,15.392684,0.12745
0.00013,15.396684,0.128347
0.00012,15.400684,0.121467
0.0002,15.404685,0.195755
0.00014,15.408685,0.135031
0.00011,15.412685,0.114013
0.00018,15.416685,0.183537
0.0001,15.420685,0.096638
-3e-05,15.424686,-0.031447
3e-05,15.428686,0.027384
-0.0,15.432686,-0.003613
1e-05,15.436686,0.011265
2e-05,15.440686,0.01803
-3e-05,15.444686,-0.028713
-2e-05,15.448687,-0.016738
5e-05,15.452687,0.054341
1e-05,15.456687,0.006443
-2e-05,15.460687,-0.01875
6e-05,15.464687,0.059128
1e-05,15.468687,0.01189
-4e-05,15.472688,-0.037116
-6e-05,15.476688,-0.063086
-4e-05,15.480688,-0.042609
-1e-05,15.484688,-0.013417
-0.00014,15.488688,-0.144375
-0.00015,15.492689,-0.145304
-0.00011,15.496689,-0.107805
-0.00011,15.500689,-0.10688
-0.00013,15.504689,-0.134502
-0.00012,15.508689,-0.124385
-0.0001,15.512689,-0.098955
-0.00017,15.51669,-0.169251
-0.00014,15.52069,-0.13644
-0.00015,15.52469,-0.146121
-0.00014,15.52869,-0.14317
-0.00021,15.53269,-0.208213
-0.00016,15.536691,-0.161634
-0.00016,15.540691,-0.162376
-0.00024,15.544691,-0.240468
-0.00016,15.548691,-0.16238
-0.00017,15.552691,-0.170341
-0.0002,15.556691,-0.199975
-0.00022,15.560692,-0.224258
-0.0002,15.564692,-0.204294
-0.00021,15.568692,-0.20728
-0.00016,15.572692,-0.162064
-0.00036,15.576692,-0.358077
-0.00033,15.580692,-0.333891
-0.0003,15.584693,-0.302604
-0.00028,15.588693,-0.284814
-0.00024,15.592693,-0.238735
-0.00029,15.596693,-0.286312
-0.00036,15.600693,-0.356298
-0.00024,15.604694,-0.238421
-0.00042,15.608694,-0.41883
-0.00038,15.612694,-0.37762
-0.00027,15.616694,-0.272804
-0.00033,15.620694,-0.32864
-0.00038,15.624694,-0.38156
-0.00042,15.628695,-0.416571
-0.00033,15.632695,-0.330124
-0.00039,15.636695,-0.386532
-0.00041,15.640695,-0.412484
-0.00043,15.644695,-0.429419
-0.00037,15.648695,-0.369722
-0.00039,15.652696,-0.386012
-0.00031,15.656696,-0.31136
-0.00034,15.660696,-0.338524
-0.00038,15.664696,-0.378646
-0.00033,15.668696,-0.326016
-0.0004,15.672697,-0.399902
-0.00045,15.676697,-0.446425
-0.00037,15.680697,-0.372131
-0.00031,15.684697,-0.310913
-0.00032,15.688697,-0.318628
-0.00043,15.692697,-0.432404
-0.00032,15.696698,-0.321438
-0.00044,15.700698,-0.440702
-0.00036,15.704698,-0.359379
-0.00036,15.708698,-0.364116
-0.00046,15.712698,-0.457553
-0.00034,15.716699,-0.336663
-0.00037,15.720699,-0.371603
-0.00037,15.724699,-0.369037
-0.00047,15.728699,-0.472206
-0.0004,15.732699,-0.404942
-0.00038,15.736699,-0.37606
-0.00037,15.7407,-0.368434
-0.00029,15.7447,-0.290107
-0.00034,15.7487,-0.337672
-0.00044,15.7527,-0.437044
-0.00038,15.7567,-0.380423
-0.00031,15.7607,-0.306461
-0.00038,15.764701,-0.375775
-0.00032,15.768701,-0.321316
-0.00032,15.772701,-0.316045
-0.00029,15.776701,-0.293082
-0.00039,15.780701,-0.394002
-0.00036,15.784702,-0.364506
-0.00026,15.788702,-0.26345
-0.00034,15.792702,-0.343831
-0.0003,15.796702,-0.303386
-0.00041,15.800702,-0.40719
-0.00037,15.804702,-0.369823
-0.00036,15.808703,-0.356291
-0.00026,15.812703,-0.26315
-0.00028,15.816703,-0.276956
-0.00033,15.820703,-0.333728
-0.00032,15.824703,-0.320261
-0.00034,15.828703,-0.335076
-0.0002,15.832704,-0.201568
-0.00025,15.836704,-0.251519
-0.0003,15.840704,-0.296481
-0.00024,15.844704,-0.240559
-0.00026,15.848704,-0.262417
-0.00027,15.852705,-0.265952
-0.00022,15.856705,-0.216584
-0.00021,15.860705,-0.2105
-0.00021,15.864705,-0.208075
-0.00022,15.868705,-0.223816
-0.00015,15.872705,-0.145373
-0.00015,15.876706,-0.151214
-8e-05,15.880706,-0.075345
-0.00021,15.884706,-0.207767
-0.00017,15.888706,-0.166748
-0.00019,15.892706,-0.187565
-0.00014,15.896707,-0.142673
-0.00012,15.900707,-0.122099
-6e-05,15.904707,-0.055369
-0.00011,15.908707,-0.111843
-4e-05,15.912707,-0.040058
-6e-05,15.916707,-0.055491
-0.00014,15.920708,-0.137802
-9e-05,15.924708,-0.093168
-7e-05,15.928708,-0.073943
-4e-05,15.932708,-0.044049
-1e-05,15.936708,-0.014806
-5e-05,15.940708,-0.052507
-3e-05,15.944709,-0.029113
1e-05,15.948709,0.010834
3e-05,15.952709,0.027455
1e-05,15.956709,0.007436
-3e-05,15.960709,-0.030309
-1e-05,15.96471,-0.00623
0.00012,15.96871,0.115422
9e-05,15.97271,0.08564
4e-05,15.97671,0.041699
8e-05,15.98071,0.080084
6e-05,15.98471,0.064848
3e-05,15.988711,0.025303
0.00011,15.992711,0.112551
0.00014,15.996711,0.137914
0.00016,16.000711,0.15688
9e-05,16.004711,0.086398
0.00013,16.008711,0.132379
0.00014,16.012712,0.140124
0.00013,16.016712,0.133449
0.00016,16.020712,0.158882
0.00019,16.024712,0.189252
0.00018,16.028712,0.178742
7e-05,16.032713,0.067941
0.00019,16.036713,0.188973
0.00027,16.040713,0.270831
0.00024,16.044713,0.239687
7e-05,16.048713,0.072639
0.00031,16.052713,0.31135
0.00023,16.056714,0.232899
0.00025,16.060714,0.250637
0.0002,16.064714,0.201204
0.00023,16.068714,0.229001
0.00029,16.072714,0.289272
0.00033,16.076715,0.326224
0.00033,16.080715,0.326812
0.00031,16.084715,0.3095
0.00024,16.088715,0.244194
0.00046,16.092715,0.461372
0.00112,16.096715,1.120495
0.00152,16.100716,1.518367
0.00084,16.104716,0.841812
0.00038,16.108716,0.379725
0.00031,16.112716,0.312903
0.00032,16.116716,0.32035
0.00029,16.120716,0.291894
0.00042,16.124717,0.416316
0.00038,16.128717,0.375789
0.00036,16.132717,0.360862
0.00037,16.136717,0.370161
0.00037,16.140717,0.370451
0.00039,16.144718,0.393033
0.00037,16.148718,0.372898
0.0004,16.152718,0.404346
0.00039,16.156718,0.393137
0.00043,16.160718,0.427557
0.00042,16.164718,0.423185
0.00029,16.168719,0.288837
0.00043,16.172719,0.431888
0.00037,16.176719,0.374656
0.00029,16.180719,0.290769
0.00035,16.184719,0.352897
0.00035,16.188719,0.349949
0.00041,16.19272,0.409837
0.00041,16.19672,0.406172
0.00038,16.20072,0.375514
0.00047,16.20472,0.467441
0.00039,16.20872,0.390127
0.00039,16.212721,0.393859
0.00034,16.216721,0.337888
0.00043,16.220721,0.430651
0.00043,16.224721,0.426792
0.00039,16.228721,0.387809
0.00046,16.232721,0.464363
0.00042,16.236722,0.419175
0.00035,16.240722,0.354677
0.00029,16.244722,0.292137
0.00032,16.248722,0.319656
0.00042,16.252722,0.415838
0.00033,16.256723,0.334092
0.00043,16.260723,0.42672
0.00038,16.264723,0.378285
0.00033,16.268723,0.329486
0.00037,16.272723,0.368147
0.00033,16.276723,0.329349
0.00034,16.280724,0.337689
0.00031,16.284724,0.31249
0.00036,16.288724,0.361331
0.00036,16.292724,0.360028
0.0003,16.296724,0.298564
0.0003,16.300724,0.296299
0.00034,16.304725,0.344955
0.00039,16.308725,0.389944
0.00027,16.312725,0.272859
0.00037,16.316725,0.371334
0.0003,16.320725,0.302135
0.00031,16.324726,0.312521
0.00037,16.328726,0.36796
0.00031,16.332726,0.312593
0.00027,16.336726,0.266376
0.00022,16.340726,0.220611
0.00028,16.344726,0.276283
0.00021,16.348727,0.213913
0.00025,16.352727,0.254988
0.0002,16.356727,0.198636
0.00024,16.360727,0.243899
0.00025,16.364727,0.252774
0.00023,16.368727,0.227138
0.00014,16.372728,0.143273
0.00016,16.376728,0.157353
0.00018,16.380728,0.176288
0.00021,16.384728,0.207979
8e-05,16.388728,0.082004
0.0002,16.392729,0.197421
9e-05,16.396729,0.088104
9e-05,16.400729,0.094087
0.00014,16.404729,0.1362
5e-05,16.408729,0.048762
0.00017,16.412729,0.166085
5e-05,16.41673,0.045678
0.00014,16.42073,0.139712
0.00012,16.42473,0.123021
2e-05,16.42873,0.023316
2e-05,16.43273,0.018543
5e-05,16.436731,0.054951
-3e-05,16.440731,-0.033827
-2e-05,16.444731,-0.015789
3e-05,16.448731,0.025323
-2e-05,16.452731,-0.017205
-4e-05,16.456731,-0.035611
-0.0,16.460732,-0.000372
-4e-05,16.464732,-0.03591
-1e-05,16.468732,-0.009524
2e-05,16.472732,0.015381
-0.0001,16.476732,-0.096569
-9e-05,16.480732,-0.09173
-0.0001,16.484733,-0.097894
-0.0001,16.488733,-0.096262
-9e-05,16.492733,-0.093669
-0.00018,16.496733,-0.180634
-6e-05,16.500733,-0.061816
-0.00011,16.504734,-0.113276
-0.0001,16.508734,-0.100499
-0.00018,16.512734,-0.17693
-0.00018,16.516734,-0.176406
-0.00014,16.520734,-0.13831
-0.00015,16.524734,-0.145439
-0.00014,16.528735,-0.14453
-0.00014,16.532735,-0.136469
-0.00021,16.536735,-0.214194
-0.00016,16.540735,-0.160266
-0.0002,16.544735,-0.199643
-0.00023,16.548735,-0.230558
-0.00023,16.552736,-0.227385
-0.00023,16.556736,-0.228866
-0.00034,16.560736,-0.339864
-0.00033,16.564736,-0.327394
-0.00027,16.568736,-0.269215
-0.00012,16.572737,-0.120026
-0.00028,16.576737,-0.277863
-0.00032,16.580737,-0.320769
-0.00035,16.584737,-0.353515
-0.00025,16.588737,-0.245576
-0.00025,16.592737,-0.252975
-0.00029,16.596738,-0.291159
-0.00034,16.600738,-0.335442
-0.00027,16.604738,-0.273912
-0.00036,16.608738,-0.355761
-0.0003,16.612738,-0.296216
-0.00042,16.616739,-0.419589
-0.00034,16.620739,-0.338223
-0.00042,16.624739,-0.418937
-0.00037,16.628739,-0.372249
-0.00042,16.632739,-0.415079
-0.00037,16.636739,-0.374935
-0.00046,16.64074,-0.462326
-0.00032,16.64474,-0.318215
-0.00033,16.64874,-0.334348
-0.00046,16.65274,-0.460566
-0.00033,16.65674,-0.325038
-0.00033,16.66074,-0.327943
-0.00025,16.664741,-0.25369
-0.00043,16.668741,-0.433099
-0.00035,16.672741,-0.345451
-0.00039,16.676741,-0.388155
-0.00037,16.680741,-0.369991
-0.00043,16.684742,-0.434537
-0.00048,16.688742,-0.477916
-0.00041,16.692742,-0.414075
-0.00039,16.696742,-0.388257
-0.00039,16.700742,-0.387277
-0.00046,16.704742,-0.461697
-0.0004,16.708743,-0.397012
-0.00046,16.712743,-0.455882
-0.00044,16.716743,-0.4354
-0.00044,16.720743,-0.442271
-0.0005,16.724743,-0.497005
-0.00041,16.728743,-0.410826
-0.0005,16.732744,-0.496038
-0.0004,16.736744,-0.400263
-0.00046,16.740744,-0.463029
-0.00052,16.744744,-0.518869
-0.00039,16.748744,-0.38527
-0.00042,16.752745,-0.415744
-0.00033,16.756745,-0.329497
-0.00045,16.760745,-0.448138
-0.00034,16.764745,-0.339328
-0.0003,16.768745,-0.304915
-0.00043,16.772745,-0.434636
-0.00044,16.776746,-0.441622
-0.00031,16.780746,-0.310243
-0.00029,16.784746,-0.288891
-0.00038,16.788746,-0.37599
-0.00026,16.792746,-0.263916
-0.00032,16.796747,-0.318561
-0.00035,16.800747,-0.34804
-0.00035,16.804747,-0.347516
-0.00028,16.808747,-0.277913
-0.00036,16.812747,-0.357804
-0.0002,16.816747,-0.20415
-0.00025,16.820748,-0.249149
-0.00039,16.824748,-0.38604
-0.00033,16.828748,-0.333477
-0.00023,16.832748,-0.233042
-0.00023,16.836748,-0.234977
-0.00027,16.840748,-0.269129
-0.00033,16.844749,-0.330975
-0.00031,16.848749,-0.308181
-0.00033,16.852749,-0.334436
-0.00019,16.856749,-0.18596
-0.00027,16.860749,-0.273401
-0.0002,16.86475,-0.199659
-0.00012,16.86875,-0.121461
-0.00015,16.87275,-0.148856
-0.00016,16.87675,-0.158115
-0.0001,16.88075,-0.097394
-0.00013,16.88475,-0.131643
-0.00015,16.888751,-0.146536
-0.00015,16.892751,-0.145444
-0.00018,16.896751,-0.176803
-9e-05,16.900751,-0.093125
-0.00014,16.904751,-0.144008
-7e-05,16.908752,-0.065498
-8e-05,16.912752,-0.081773
-0.00013,16.916752,-0.130514
-4e-05,16.920752,-0.038047
0.0001,16.924752,0.103282
-4e-05,16.928752,-0.042666
-7e-05,16.932753,-0.070811
-5e-05,16.936753,-0.054909
-2e-05,16.940753,-0.021351
4e-05,16.944753,0.035998
-3e-05,16.948753,-0.030029
-4e-05,16.952753,-0.037243
1e-05,16.956754,0.013671
-1e-05,16.960754,-0.00833
4e-05,16.964754,0.036664
-5e-05,16.968754,-0.053315
7e-05,16.972754,0.071086
6e-05,16.976755,0.056368
0.00011,16.980755,0.105779
0.0,16.984755,0.003429
4e-05,16.988755,0.04164
0.00019,16.992755,0.187564
5e-05,16.996755,0.045643
8e-05,17.000756,0.082713
0.00012,17.004756,0.124749
0.00011,17.008756,0.107572
0.0001,17.012756,0.104035
8e-05,17.016756,0.081555
0.00023,17.020756,0.225473
9e-05,17.024757,0.094198
0.00014,17.028757,0.135067
0.00018,17.032757,0.180546
0.00019,17.036757,0.189651
0.00017,17.040757,0.170122
0.00019,17.044758,0.188482
0.00024,17.048758,0.243759
0.00028,17.052758,0.275542
0.00025,17.056758,0.250997
0.00024,17.060758,0.243892
0.00021,17.064758,0.213855
0.00021,17.068759,0.214837
0.00015,17.072759,0.150886
0.00025,17.076759,0.251088
0.00029,17.080759,0.294968
0.00025,17.084759,0.249392
0.00016,17.08876,0.159757
0.00044,17.09276,0.438496
0.00118,17.09676,1.17993
0.00147,17.10076,1.47267
0.00086,17.10476,0.862637
0.00037,17.10876,0.372993
0.00033,17.112761,0.333808
0.00032,17.116761,0.321822
0.00035,17.120761,0.345516
0.00039,17.124761,0.388565
0.00035,17.128761,0.346742
0.00039,17.132761,0.386101
0.00033,17.136762,0.327144
0.00043,17.140762,0.426606
0.00037,17.144762,0.369295
0.00038,17.148762,0.379802
0.00035,17.152762,0.3507
0.00041,17.156763,0.414142
0.0004,17.160763,0.396691
0.00039,17.164763,0.387629
0.00042,17.168763,0.417044
0.00036,17.172763,0.362073
0.00041,17.176763,0.411061
0.00041,17.180764,0.414859
0.00043,17.184764,0.432643
0.00041,17.188764,0.407949
0.00042,17.192764,0.4169
0.00047,17.196764,0.472774
0.00044,17.200764,0.436606
0.00042,17.204765,0.41518
0.00032,17.208765,0.320157
0.00045,17.212765,0.45454
0.00041,17.216765,0.407735
0.00033,17.220765,0.329044
0.00032,17.224766,0.319717
0.00041,17.228766,0.412464
0.00047,17.232766,0.472911
0.00034,17.236766,0.343345
0.00047,17.240766,0.46881
0.00035,17.244766,0.354825
0.00045,17.248767,0.446915
0.00034,17.252767,0.34451
0.00034,17.256767,0.335319
0.00027,17.260767,0.274275
0.00035,17.264767,0.348247
0.00029,17.268768,0.29254
0.00027,17.272768,0.269895
0.0003,17.276768,0.295409
0.00013,17.280768,0.130733
0.00032,17.284768,0.320437
0.00036,17.288768,0.355318
0.0003,17.292769,0.298437
0.00042,17.296769,0.419324
0.00032,17.300769,0.321272
0.00031,17.304769,0.306619
0.00028,17.308769,0.283739
0.00034,17.312769,0.343704
0.00027,17.31677,0.271112
0.00022,17.32077,0.219748
0.00028,17.32477,0.28289
0.00024,17.32877,0.241706
0.00026,17.33277,0.256463
0.00014,17.336771,0.140986
0.00027,17.340771,0.273655
0.00032,17.344771,0.320116
0.00024,17.348771,0.239328
0.00024,17.352771,0.237603
0.00022,17.356771,0.224929
0.00023,17.360772,0.225478
0.00017,17.364772,0.171634
0.00023,17.368772,0.22588
0.00019,17.372772,0.187216
0.00013,17.376772,0.127016
0.00015,17.380772,0.147733
0.00013,17.384773,0.132517
0.00014,17.388773,0.14497
0.00018,17.392773,0.175866
0.00021,17.396773,0.210386
0.00018,17.400773,0.176755
0.00021,17.404774,0.214815
0.00019,17.408774,0.19055
0.00012,17.412774,0.115199
4e-05,17.416774,0.03991
9e-05,17.420774,0.091357
0.00019,17.424774,0.186693
0.0001,17.428775,0.096814
3e-05,17.432775,0.031273
6e-05,17.436775,0.059666
3e-05,17.440775,0.029018
-3e-05,17.444775,-0.028663
-5e-05,17.448776,-0.046024
-8e-05,17.452776,-0.076196
-2e-05,17.456776,-0.019682
-4e-05,17.460776,-0.039015
-0.0,17.464776,-0.001251
-2e-05,17.468776,-0.01913
-4e-05,17.472777,-0.039735
-7e-05,17.476777,-0.066689
-5e-05,17.480777,-0.045637
-2e-05,17.484777,-0.021134
-7e-05,17.488777,-0.066144
-3e-05,17.492777,-0.025818
-6e-05,17.496778,-0.05729
-0.0002,17.500778,-0.195558
-0.00013,17.504778,-0.130653
-0.00014,17.508778,-0.138754
-0.00023,17.512778,-0.234077
-0.00015,17.516779,-0.153979
-0.00022,17.520779,-0.216143
-0.00014,17.524779,-0.139794
-9e-05,17.528779,-0.090298
-0.00017,17.532779,-0.174009
-0.00018,17.536779,-0.177385
-0.00021,17.54078,-0.208706
-0.00024,17.54478,-0.238417
-0.00027,17.54878,-0.266673
-0.00024,17.55278,-0.242437
-0.00038,17.55678,-0.378533
-0.00021,17.56078,-0.209324
-0.00033,17.564781,-0.32803
-0.0003,17.568781,-0.299015
-0.00028,17.572781,-0.281107
-0.00027,17.576781,-0.274156
-0.0003,17.580781,-0.30205
-0.00024,17.584782,-0.235468
-0.00041,17.588782,-0.407258
-0.00029,17.592782,-0.28718
-0.00033,17.596782,-0.329511
-0.00022,17.600782,-0.22418
-0.00031,17.604782,-0.314238
-0.00038,17.608783,-0.380822
-0.00037,17.612783,-0.374998
-0.00032,17.616783,-0.324431
-0.00036,17.620783,-0.359287
-0.00027,17.624783,-0.269838
-0.00031,17.628784,-0.307957
-0.0004,17.632784,-0.39588
-0.00052,17.636784,-0.519706
-0.00037,17.640784,-0.367354
-0.00038,17.644784,-0.378359
-0.00035,17.648784,-0.346904
-0.00035,17.652785,-0.351751
-0.00042,17.656785,-0.421307
-0.00041,17.660785,-0.406754
-0.00034,17.664785,-0.341126
-0.00033,17.668785,-0.325431
-0.00048,17.672785,-0.476365
-0.00056,17.676786,-0.563638
-0.0004,17.680786,-0.404057
-0.00033,17.684786,-0.326087
-0.00042,17.688786,-0.421989
-0.00036,17.692786,-0.357564
-0.00047,17.696787,-0.474316
-0.0004,17.700787,-0.401382
-0.00029,17.704787,-0.293771
-0.0004,17.708787,-0.403283
-0.00041,17.712787,-0.414234
-0.0003,17.716787,-0.30059
-0.00039,17.720788,-0.389425
-0.00038,17.724788,-0.375885
-0.00031,17.728788,-0.314204
-0.00039,17.732788,-0.393577
-0.00036,17.736788,-0.356536
-0.00039,17.740788,-0.389445
-0.00042,17.744789,-0.424249
-0.00032,17.748789,-0.320737
-0.00039,17.752789,-0.385538
-0.00037,17.756789,-0.368475
-0.0003,17.760789,-0.30424
-0.00037,17.76479,-0.372459
-0.00037,17.76879,-0.366029
-0.00033,17.77279,-0.333906
-0.00032,17.77679,-0.317778
-0.00034,17.78079,-0.337542
-0.00034,17.78479,-0.343528
-0.00027,17.788791,-0.270812
-0.00036,17.792791,-0.360315
-0.00033,17.796791,-0.333993
-0.00031,17.800791,-0.309715
-0.0003,17.804791,-0.297746
-0.00039,17.808792,-0.390554
-0.00026,17.812792,-0.26119
-0.00026,17.816792,-0.264649
-0.00025,17.820792,-0.254656
-0.00028,17.824792,-0.276006
-0.00034,17.828792,-0.341607
-0.00028,17.832793,-0.280943
-0.00026,17.836793,-0.262804
-0.00029,17.840793,-0.29275
-0.00021,17.844793,-0.208092
-0.00025,17.848793,-0.250445
-0.00021,17.852793,-0.211727
-0.00024,17.856794,-0.241199
-0.00015,17.860794,-0.154708
-0.00025,17.864794,-0.246806
-0.00021,17.868794,-0.209336
-0.00023,17.872794,-0.225532
-0.00014,17.876795,-0.144627
-0.00015,17.880795,-0.145243
-0.00023,17.884795,-0.230091
-0.0002,17.888795,-0.20232
-0.00019,17.892795,-0.185157
-0.00011,17.896795,-0.109583
